##1.4

M
U
27999
00/00/0000,00/00/0000
00:00:00
Adult
1 255
11 0
0
50 100
QTcHodge
0 0
12Lead
110000111111
200
500
5000
12
244
243
243
242
242
241
241
240
240
240
241
241
242
242
243
243
244
243
243
242
242
242
242
242
242
241
241
241
241
241
241
241
241
240
240
240
240
239
239
239
239
239
239
239
239
238
238
238
238
237
237
236
236
238
240
242
244
243
243
242
242
240
239
237
236
238
240
242
244
243
243
242
242
241
241
241
241
240
240
239
239
238
238
238
238
237
237
236
236
235
234
233
232
234
236
238
240
240
241
241
242
241
241
241
241
240
240
240
240
240
240
240
240
239
239
239
240
240
240
240
241
240
240
239
239
239
240
240
241
240
240
240
241
241
242
242
243
243
243
242
241
240
240
240
241
242
244
245
246
246
246
246
246
247
249
251
254
252
251
249
247
250
253
255
258
259
260
261
263
262
262
261
260
259
258
258
258
258
258
258
258
256
255
252
249
247
245
244
244
242
241
240
240
240
240
240
240
240
240
240
240
240
240
239
239
238
237
237
237
236
236
236
236
235
235
235
235
234
234
234
234
233
233
231
230
227
225
223
222
223
224
228
232
241
251
264
278
293
309
328
348
368
389
399
410
404
398
374
350
322
294
273
252
239
226
224
223
224
225
224
224
222
221
221
221
222
224
225
227
227
227
227
227
227
227
228
230
231
232
232
232
232
232
231
231
230
229
229
230
230
230
229
229
229
230
231
233
232
231
229
227
226
225
224
224
225
226
227
229
229
230
230
231
231
231
231
232
231
231
231
231
230
230
230
230
230
230
231
232
232
232
230
229
230
232
235
238
237
237
235
234
234
234
234
234
234
235
236
238
238
239
239
239
239
239
240
241
242
243
243
244
245
246
246
247
246
246
247
248
249
250
250
250
250
250
250
251
252
253
253
254
254
254
254
254
253
253
252
252
252
252
252
252
253
255
256
257
257
258
258
259
256
253
250
247
246
246
246
247
249
251
252
253
252
251
249
248
247
246
245
244
242
240
239
238
237
237
236
236
236
236
236
236
235
235
235
235
234
234
234
234
234
234
233
233
232
231
231
232
232
232
231
231
231
231
231
232
232
232
232
232
232
232
232
232
232
232
232
232
231
231
230
230
230
231
231
232
232
233
233
234
233
233
232
232
231
230
229
228
228
228
228
228
228
229
229
230
230
231
231
232
232
232
232
232
231
230
229
228
227
227
226
226
227
228
229
230
227
224
221
218
220
222
224
226
225
225
224
224
224
224
224
225
225
225
225
226
225
225
225
225
224
224
224
224
224
224
224
224
223
223
223
223
222
222
222
222
222
222
222
222
221
221
221
221
220
220
220
220
220
220
220
220
220
220
220
220
221
223
224
226
224
222
220
218
217
217
216
216
216
216
216
216
216
216
216
216
216
217
217
217
216
215
215
215
215
215
214
213
213
213
213
213
213
213
214
215
214
214
214
214
214
215
216
217
217
217
217
217
218
219
219
219
219
220
221
223
223
224
225
226
226
226
226
226
226
227
227
227
225
224
223
222
223
224
225
226
226
227
226
225
221
218
215
213
212
211
210
209
208
207
207
207
207
207
207
208
207
207
207
208
207
207
206
206
206
206
206
206
206
206
206
206
205
204
203
202
202
202
202
202
200
199
196
193
191
190
191
192
198
204
213
223
234
245
259
274
291
309
328
348
353
358
346
335
308
282
252
222
207
192
184
176
175
174
176
178
178
179
179
179
180
181
183
186
188
190
190
191
191
191
191
192
193
194
195
196
196
196
196
196
195
195
194
194
194
194
193
193
193
193
193
194
194
195
196
197
197
197
196
196
195
195
195
195
195
195
195
196
196
196
196
196
195
195
195
195
194
194
194
194
193
193
192
192
193
194
194
195
196
197
198
200
199
198
197
197
198
199
199
199
198
198
198
199
199
200
200
201
200
200
200
201
202
203
204
206
206
207
208
209
209
209
209
209
209
209
208
208
210
212
214
216
217
218
219
221
220
220
219
218
217
217
217
217
217
217
216
216
216
216
216
216
215
215
215
216
216
217
216
215
214
213
212
212
212
212
212
212
210
209
208
208
206
205
204
204
203
202
200
199
198
198
198
198
197
197
196
195
195
196
196
197
196
196
195
195
193
191
189
188
188
188
188
188
188
189
189
189
188
187
186
186
186
187
187
188
188
188
188
189
189
189
189
189
188
188
188
188
188
188
188
188
187
187
186
186
188
190
192
194
193
193
192
192
191
191
191
191
190
190
190
190
189
189
189
189
188
188
188
188
187
186
185
184
184
184
184
184
184
185
185
186
187
188
189
190
188
186
184
182
182
183
183
184
184
184
184
184
182
181
179
178
180
182
184
186
185
185
184
184
184
184
184
184
184
184
184
184
183
183
183
183
182
182
181
181
180
180
180
180
180
180
180
180
180
181
181
182
181
181
180
180
180
180
180
180
180
180
180
180
179
179
179
179
178
178
177
177
176
176
175
175
175
175
176
177
177
177
176
176
176
177
177
178
177
176
176
176
176
176
176
176
177
178
178
179
177
175
174
173
174
176
177
178
179
180
181
182
181
180
180
180
181
183
184
185
186
187
187
188
189
190
191
193
191
189
186
183
182
182
182
183
185
188
190
192
190
188
184
181
178
176
175
174
172
171
170
169
168
168
167
167
167
168
168
168
168
168
167
167
166
165
164
164
164
165
165
166
166
166
166
166
166
166
166
166
166
166
165
164
161
158
156
155
155
156
160
164
171
178
189
201
215
230
249
268
288
308
318
328
322
316
292
268
241
215
195
176
164
152
151
151
153
156
156
157
156
155
155
155
156
157
158
160
159
159
158
157
156
156
157
158
159
160
160
160
160
161
161
161
160
159
159
159
159
159
158
158
157
157
157
158
158
159
159
159
158
157
157
157
156
156
156
157
157
157
156
156
156
156
156
156
158
160
162
164
163
163
162
162
161
160
160
160
160
160
159
158
157
157
158
159
160
162
163
164
164
164
164
164
163
163
163
163
163
164
164
164
162
161
160
159
164
169
173
178
175
173
170
167
167
168
170
172
172
173
173
173
172
172
172
173
173
174
174
175
174
174
174
174
174
175
175
176
176
176
176
177
177
177
177
177
177
177
177
178
176
175
174
173
172
172
172
173
173
173
172
171
170
170
169
168
167
167
166
166
165
164
164
164
163
163
162
162
161
161
160
160
159
158
157
156
157
159
161
163
161
160
157
155
155
155
156
157
157
157
156
156
156
156
156
157
157
158
158
159
159
160
161
162
160
158
156
154
156
158
160
162
160
158
156
154
154
155
155
156
156
156
156
156
155
155
155
155
154
154
154
154
154
154
154
155
155
155
155
156
156
156
156
156
155
154
153
152
152
152
152
152
151
151
150
150
153
156
159
162
159
156
153
150
150
151
151
152
152
152
152
152
151
151
151
151
150
150
150
150
150
150
150
150
149
149
149
149
148
148
148
148
147
147
146
146
148
150
152
154
153
153
152
152
151
150
149
148
147
147
146
146
146
147
147
148
148
149
149
150
149
149
148
148
148
148
148
148
147
146
145
145
144
143
142
142
142
142
142
142
142
142
142
142
141
140
140
141
141
142
141
141
141
141
141
141
142
143
144
146
145
145
145
145
144
144
143
143
145
148
150
153
151
150
147
145
146
147
149
151
152
153
154
155
155
155
155
155
156
158
158
159
158
157
156
156
156
157
157
158
158
158
156
155
151
148
145
143
143
144
144
144
141
139
137
135
137
139
141
143
142
141
140
140
138
137
135
134
133
132
131
130
130
130
130
130
131
132
133
134
134
134
134
134
132
130
126
123
121
120
121
122
126
130
137
145
156
167
181
196
214
232
252
272
288
304
303
303
280
258
232
206
183
160
144
128
126
124
125
126
126
126
125
125
123
121
120
120
121
122
121
121
120
120
120
120
121
122
123
125
125
125
125
126
125
125
124
124
124
124
124
124
123
122
122
122
122
123
124
125
125
125
124
124
124
124
124
124
124
124
124
125
124
124
124
124
124
124
124
125
125
125
125
126
126
126
126
126
126
127
127
127
125
123
121
120
123
126
129
133
133
133
132
131
130
129
129
129
129
130
130
130
129
129
129
129
131
133
135
137
137
138
138
139
137
135
133
131
134
138
141
144
143
143
142
142
142
143
144
145
145
146
146
146
145
145
145
146
146
146
146
146
146
146
146
147
146
146
147
148
148
149
148
147
145
144
143
143
143
144
144
144
143
143
143
144
143
142
141
141
140
140
138
137
134
132
130
128
130
132
133
135
133
132
130
129
128
128
127
127
129
131
133
136
135
134
133
132
132
132
131
131
130
129
128
128
128
128
128
128
128
129
129
130
129
129
128
128
128
128
128
128
128
129
129
130
131
132
133
134
132
130
128
126
125
125
124
124
124
124
124
125
125
126
126
127
127
127
127
128
128
129
129
130
129
129
128
128
127
127
126
126
125
125
124
124
124
124
124
124
124
125
125
126
125
125
124
124
123
123
123
123
122
122
122
122
122
122
122
123
123
124
125
126
124
122
120
118
118
119
119
120
120
120
120
121
121
121
121
121
120
120
120
120
120
120
120
120
120
120
120
120
119
119
118
118
118
119
119
120
120
121
121
122
121
121
120
120
119
119
118
118
117
117
117
117
117
117
117
118
117
117
117
117
117
117
116
116
116
117
117
118
117
116
115
115
115
116
116
117
117
118
117
117
117
118
119
121
120
119
117
116
117
118
119
120
120
121
122
124
125
127
128
129
129
130
130
131
131
131
132
133
132
132
131
130
129
128
128
129
129
130
130
130
128
127
124
121
119
117
116
116
115
114
113
113
113
114
114
115
114
114
113
112
112
113
113
113
110
108
106
104
104
105
105
106
107
108
109
110
110
110
110
110
110
111
110
110
105
101
97
94
95
97
101
106
114
123
135
148
163
179
198
218
239
261
272
284
280
276
254
232
203
174
152
130
116
103
101
99
100
101
100
99
97
96
95
95
96
97
98
99
98
97
95
94
96
98
101
104
104
105
104
104
103
103
102
102
101
100
100
100
99
99
98
98
98
98
98
99
100
101
101
102
101
101
101
102
101
101
101
102
102
102
102
102
101
101
100
100
100
101
101
102
102
102
102
102
102
102
103
104
104
104
103
102
101
101
102
103
104
105
105
106
105
105
104
104
104
105
106
108
108
109
109
109
109
110
111
113
114
115
115
116
116
117
117
117
116
116
117
118
118
119
118
118
118
118
118
119
121
123
124
126
126
126
126
126
126
126
126
126
125
125
124
124
123
123
122
122
122
123
123
124
123
122
121
121
121
121
122
123
122
122
120
119
118
118
117
116
115
115
115
115
113
112
111
111
110
110
110
110
109
108
107
107
106
105
104
103
101
100
99
99
101
104
105
107
106
105
105
105
104
104
103
103
103
103
103
103
103
103
103
104
104
104
104
104
104
104
104
104
103
103
103
103
102
102
102
102
101
101
101
101
100
100
100
100
100
100
100
100
99
99
98
98
98
99
99
100
100
101
101
102
101
100
99
98
100
102
104
106
103
100
97
94
96
98
100
102
102
103
103
104
103
102
101
100
99
99
99
99
99
99
99
99
99
99
99
100
99
99
98
98
98
98
98
98
98
98
98
98
96
94
92
90
92
94
96
98
98
99
99
100
99
98
97
96
95
95
95
95
95
95
95
95
95
95
95
96
97
99
100
102
100
98
96
94
93
93
92
92
92
92
92
92
92
92
92
92
92
93
93
94
93
93
92
91
90
90
90
91
91
92
91
91
93
95
97
99
98
98
98
98
96
95
94
93
93
94
95
96
96
96
96
97
97
98
98
98
98
99
101
103
104
105
106
107
107
107
107
108
108
109
109
109
108
107
107
107
107
108
109
110
110
110
109
108
105
102
100
98
97
96
95
94
92
90
88
87
89
91
93
95
92
90
88
86
86
86
86
86
85
85
85
85
85
85
85
85
85
85
85
86
86
86
86
86
84
83
80
77
75
73
73
74
76
79
85
91
104
118
135
152
170
188
208
228
244
260
259
259
238
218
194
170
147
124
108
92
87
83
81
80
79
78
76
75
74
73
73
74
75
77
77
77
76
75
75
75
75
76
77
78
78
78
78
78
77
76
75
75
75
75
75
75
74
74
74
74
75
76
77
79
79
79
78
78
78
78
78
78
78
79
79
80
83
86
89
92
88
84
80
76
75
75
74
74
74
75
75
76
77
79
80
81
80
79
79
79
80
81
83
85
85
85
84
84
83
82
82
83
83
84
84
85
85
85
85
86
87
88
89
91
91
92
92
93
93
93
93
93
94
96
97
98
97
97
97
97
97
98
99
100
100
101
101
102
103
105
107
109
106
104
101
98
101
104
107
110
107
105
103
102
103
105
105
105
102
99
96
94
94
94
93
93
93
93
93
94
93
92
92
92
91
91
90
89
88
87
87
87
86
86
85
85
84
83
82
82
81
80
79
79
79
79
80
81
80
80
80
80
80
81
81
82
81
81
81
82
81
81
81
81
80
80
80
80
80
80
80
80
80
80
80
80
79
79
78
78
78
79
79
80
80
80
80
80
79
79
78
78
77
77
76
76
76
76
76
76
76
76
76
77
77
77
77
78
77
77
77
77
76
76
76
76
76
76
76
76
76
76
76
76
76
77
77
78
77
77
76
76
75
75
75
75
75
75
75
75
75
75
75
76
76
76
76
76
75
74
73
72
72
72
72
72
72
72
72
73
73
73
73
74
73
73
73
73
72
72
72
72
72
72
72
72
72
73
73
74
74
75
75
76
76
76
76
76
74
73
71
70
69
68
67
66
65
64
63
62
65
68
71
75
72
69
65
62
63
64
65
66
66
67
68
69
69
69
69
69
69
69
68
67
68
69
71
73
72
71
69
68
70
73
75
78
77
76
76
76
77
79
80
81
81
82
82
82
81
81
81
81
83
85
86
87
86
85
85
85
85
85
85
85
83
81
77
74
71
68
67
66
67
68
69
71
70
70
69
69
68
68
67
67
66
66
65
65
64
63
63
63
62
62
62
62
61
61
60
60
62
64
66
68
67
67
65
64
61
58
56
55
55
56
59
63
69
76
87
98
113
128
147
166
184
202
210
218
213
208
185
162
135
108
88
68
55
43
42
41
43
45
45
45
44
44
44
45
47
49
51
53
54
55
55
56
56
56
57
59
60
61
61
61
60
59
58
57
56
56
56
57
57
57
56
56
58
60
62
65
64
63
61
59
59
59
59
60
60
60
60
61
61
62
62
62
62
62
62
62
61
61
60
60
59
58
57
56
56
56
57
58
60
63
64
65
65
65
66
68
69
70
70
70
69
68
67
66
66
66
66
67
68
69
69
70
71
72
73
75
75
76
76
76
76
76
76
76
76
76
77
79
80
81
81
82
82
83
84
85
85
86
86
86
86
86
86
86
86
86
86
87
86
86
86
86
86
86
85
85
85
85
85
86
84
83
82
81
80
79
79
79
82
85
87
89
85
82
78
74
74
74
74
74
73
72
72
72
70
68
66
64
64
64
64
64
63
63
63
63
62
62
62
63
63
63
62
62
61
60
60
61
60
60
59
58
58
59
59
60
61
62
63
64
64
64
64
64
63
63
63
63
62
62
62
62
62
62
62
63
63
63
63
64
64
65
65
66
65
64
63
62
62
62
62
62
62
62
62
62
62
62
62
62
62
62
62
62
59
56
53
50
53
56
59
62
62
62
62
62
62
62
62
62
60
58
56
54
56
58
60
62
62
63
63
64
63
63
62
62
61
61
60
60
59
59
59
59
58
58
58
58
57
57
57
57
56
56
56
56
56
56
56
56
56
56
56
56
55
55
54
54
54
54
54
54
54
54
54
54
56
58
60
62
60
58
56
54
54
55
55
56
55
55
55
55
54
54
54
54
54
54
54
55
55
55
54
54
52
51
49
48
49
51
53
55
54
54
53
53
53
54
53
53
53
53
54
55
56
57
57
58
58
58
58
59
58
58
58
59
60
62
63
65
66
68
69
70
70
70
70
71
70
70
69
68
67
66
66
67
67
67
67
67
65
63
60
57
55
53
52
52
51
50
50
50
50
50
50
50
49
49
48
48
48
49
49
49
46
44
42
40
42
44
46
48
47
47
46
46
46
46
46
46
45
45
44
43
40
38
36
35
36
38
43
48
55
63
74
86
101
116
135
154
175
196
207
218
208
199
171
144
119
94
76
58
48
38
39
41
40
40
37
35
35
35
36
37
36
36
35
35
35
35
34
34
36
38
41
44
44
45
44
44
43
43
42
42
41
40
40
41
41
41
41
41
41
41
42
43
44
45
45
45
43
42
41
40
39
39
39
39
40
41
41
42
41
41
40
40
42
44
46
48
48
49
49
50
49
48
48
48
48
48
47
46
45
44
45
46
47
48
48
49
48
47
46
46
46
47
48
49
49
50
50
50
50
51
52
53
54
56
57
58
58
58
57
57
57
57
58
60
60
61
60
60
60
60
60
61
64
67
69
72
70
68
66
64
65
66
67
68
66
65
63
62
64
66
67
69
70
71
72
73
71
69
67
65
64
63
63
63
62
62
60
59
58
58
57
56
57
58
59
60
56
53
50
48
51
54
57
60
57
55
52
50
50
50
50
50
50
50
50
51
51
51
50
49
48
47
47
48
48
48
47
47
47
47
47
48
49
50
51
52
52
52
52
52
50
49
47
46
46
46
46
46
48
50
52
54
53
53
52
52
51
50
49
48
47
47
46
46
46
47
47
48
47
47
46
46
48
50
52
54
53
53
52
52
51
51
50
50
49
49
48
48
48
48
48
48
48
49
49
50
49
49
48
48
48
48
48
48
47
47
47
47
46
46
46
46
45
45
45
45
44
44
44
44
44
44
44
44
44
44
44
44
44
45
45
46
45
45
44
44
44
44
44
44
44
44
44
44
43
43
43
43
43
43
43
43
43
43
43
44
44
44
44
44
44
44
44
44
43
43
42
42
41
41
41
41
41
41
42
43
42
42
41
41
41
41
41
42
41
41
41
41
40
40
39
39
40
41
41
41
41
42
43
45
45
46
46
46
47
48
49
50
47
45
43
42
45
49
52
55
56
57
57
58
56
55
54
53
53
54
53
53
53
53
54
55
56
57
57
58
57
56
53
51
48
46
45
44
43
43
43
43
43
43
43
43
43
43
42
42
42
42
41
41
38
36
34
32
34
36
38
40
38
36
34
32
32
33
33
34
34
35
34
34
30
27
24
22
23
24
28
32
41
51
64
78
92
107
125
144
165
186
197
208
203
198
175
152
125
99
79
60
47
34
32
31
32
33
32
31
29
28
27
27
27
28
28
29
29
29
28
28
28
28
29
31
32
33
33
34
33
33
32
32
31
30
30
31
31
31
30
30
29
29
29
30
30
31
31
31
30
30
30
31
31
32
33
35
33
32
30
28
28
29
29
30
31
32
33
34
33
33
32
32
34
36
39
42
40
39
36
33
33
33
34
36
38
40
41
42
41
40
39
38
38
38
39
40
40
40
39
39
38
38
38
39
42
45
47
50
51
52
52
53
51
50
50
50
51
52
52
52
52
52
52
53
54
55
55
56
58
60
62
64
62
61
59
58
58
59
59
60
59
59
58
58
58
59
59
60
59
59
59
59
56
54
52
51
51
52
51
51
51
52
52
52
51
51
50
50
47
45
43
42
42
42
42
42
42
42
42
42
41
40
39
38
37
37
37
37
37
38
37
37
36
36
37
38
38
38
37
37
37
37
37
38
38
38
38
38
37
37
37
37
37
37
37
37
36
36
36
36
36
36
36
36
36
36
36
36
36
37
37
38
37
37
36
36
35
34
33
32
32
32
32
32
32
32
32
33
33
34
34
35
35
35
35
36
36
36
36
36
34
33
31
30
32
34
36
38
37
37
36
36
35
35
34
34
33
32
31
30
32
34
36
38
37
37
36
36
35
34
33
32
31
31
31
31
30
30
30
30
30
30
30
31
31
31
31
32
32
32
32
32
32
32
32
32
31
31
31
31
31
31
31
31
31
31
31
32
32
32
32
32
31
31
31
31
30
30
29
29
28
28
28
28
28
29
30
31
30
30
29
28
28
29
29
30
30
30
30
31
30
30
29
29
29
30
29
29
29
29
30
31
32
33
33
34
34
35
35
36
35
35
35
36
38
40
41
43
43
44
44
44
44
45
46
47
47
48
47
47
46
45
45
45
45
45
44
44
43
42
39
37
35
33
32
32
30
28
26
25
25
25
25
25
26
27
27
28
28
28
27
27
25
24
23
22
22
22
22
22
22
22
22
23
23
23
23
23
22
22
21
20
17
14
12
10
12
14
19
24
33
43
56
70
84
99
117
136
158
181
193
206
197
189
162
136
108
81
60
40
26
13
11
10
11
13
12
12
11
10
10
11
12
14
16
18
18
18
17
17
16
16
17
18
19
20
20
20
20
21
21
21
20
19
19
19
18
18
17
17
17
17
17
18
19
20
20
21
20
20
20
20
20
20
20
21
21
22
22
22
22
22
22
22
22
22
22
22
21
21
21
21
20
20
21
22
22
23
22
22
21
21
22
24
25
27
27
28
28
28
28
28
28
28
28
29
28
27
25
24
26
29
32
35
35
36
36
36
36
37
37
37
37
37
38
40
40
41
40
40
40
41
42
43
44
45
45
46
45
45
44
44
45
46
47
48
48
48
48
48
48
49
49
49
49
50
50
51
50
49
48
47
46
46
46
47
45
43
40
37
36
36
35
34
35
37
38
40
38
36
35
34
34
34
34
34
32
31
29
28
27
27
26
26
26
26
26
27
28
29
29
29
28
28
28
29
28
27
25
24
24
24
24
24
23
23
22
22
24
26
28
30
29
29
28
28
27
27
26
26
26
27
27
28
27
27
26
26
26
26
26
26
24
22
20
18
20
22
24
26
26
27
27
28
27
27
27
27
26
26
25
25
24
24
24
24
23
23
23
23
23
23
23
23
23
23
23
24
24
24
24
24
23
23
23
23
22
22
21
21
20
19
18
18
20
22
24
26
24
22
20
18
18
19
19
20
20
20
20
20
20
20
20
20
20
21
21
22
23
24
25
26
24
22
20
18
17
17
16
16
17
18
19
20
20
20
20
20
20
20
20
20
20
20
20
21
20
20
19
19
18
18
18
18
18
18
18
18
18
18
18
18
18
18
18
18
16
15
13
12
16
20
24
28
26
24
22
20
21
22
23
24
24
24
24
24
24
24
24
24
26
28
30
32
31
31
30
30
31
33
34
36
34
32
30
28
29
30
31
32
32
32
32
32
29
26
23
20
20
20
20
20
16
12
8
4
7
10
13
16
16
16
16
16
16
16
16
64
63
63
62
62
61
61
61
61
60
60
60
60
59
59
59
59
58
58
58
58
58
58
58
58
57
57
57
57
56
56
56
56
55
55
55
55
54
54
54
54
54
54
54
54
53
53
52
52
52
53
53
54
54
54
54
54
53
53
53
53
53
53
53
53
53
53
53
54
54
55
55
56
55
55
54
54
53
53
53
53
52
52
51
51
50
50
50
50
50
50
50
50
50
51
51
52
52
53
53
54
54
54
54
54
54
54
54
54
54
54
54
54
53
53
53
53
52
52
52
53
53
53
53
53
53
54
54
55
54
54
54
54
55
56
57
58
57
57
56
56
57
58
59
61
62
64
65
66
66
67
67
68
67
67
66
66
65
65
65
65
66
68
69
70
70
70
70
71
70
70
69
68
65
63
62
61
61
61
61
61
60
59
58
57
56
56
55
55
53
52
51
51
50
50
49
48
50
52
54
56
55
55
54
54
54
54
54
54
53
53
53
53
52
52
52
52
52
52
52
52
51
50
49
48
46
44
43
42
42
42
45
48
57
66
80
94
109
125
138
152
164
177
187
198
197
196
186
177
169
162
156
151
145
140
135
130
124
118
111
105
97
89
81
74
70
66
65
64
61
59
57
56
55
54
54
54
54
54
54
54
53
53
52
52
51
51
50
50
50
51
51
52
51
51
51
52
51
50
47
45
46
47
49
51
51
51
51
51
51
52
51
51
50
50
50
51
51
52
52
53
52
51
50
49
49
49
49
50
50
50
50
50
51
53
55
57
56
55
53
52
54
56
58
60
58
56
54
53
55
58
60
62
61
61
61
61
61
62
62
62
63
64
65
66
65
65
65
66
69
73
76
79
78
78
77
77
78
79
80
81
82
84
84
85
82
80
78
76
78
80
82
85
86
87
87
87
86
86
86
86
86
86
85
85
82
79
76
74
77
80
82
84
83
83
83
83
81
80
78
77
75
74
73
72
71
71
71
71
71
71
71
72
71
71
71
71
70
70
70
70
70
70
69
69
68
68
68
69
68
68
67
67
67
67
67
68
67
67
66
66
68
70
72
74
73
72
71
70
70
70
70
70
72
74
76
78
76
74
72
70
70
71
71
72
72
72
72
72
71
71
71
71
70
70
70
70
69
69
69
69
68
68
68
68
68
68
68
68
67
67
66
66
67
68
69
70
67
64
61
58
60
62
64
66
65
65
64
64
64
65
65
66
65
64
63
62
64
66
68
70
69
69
68
68
67
67
67
67
66
66
66
66
65
65
65
65
64
64
64
64
64
64
64
64
64
64
64
64
63
62
61
60
60
60
60
60
61
62
63
64
64
64
64
64
64
64
64
64
63
63
62
62
61
61
60
60
60
61
61
62
61
61
62
63
63
63
62
62
62
62
62
63
63
63
63
63
63
63
64
65
66
67
68
69
69
70
71
72
73
74
74
74
73
73
72
72
72
72
74
76
77
78
78
78
78
79
79
79
77
75
72
70
69
68
68
69
69
70
69
69
67
66
65
64
63
62
60
58
58
58
58
59
58
58
58
58
58
58
58
58
58
58
58
58
57
57
57
57
56
56
56
56
56
56
57
58
58
59
59
60
57
54
50
46
45
44
44
45
51
58
69
81
95
110
126
143
158
174
189
204
214
225
224
223
211
200
190
181
174
168
162
156
150
145
138
132
125
118
109
101
92
84
79
75
73
71
68
65
63
61
60
59
58
57
57
57
57
57
56
56
55
54
54
54
54
54
53
53
52
52
52
52
52
53
54
55
54
54
53
53
53
53
53
54
54
55
55
56
55
55
55
55
55
55
56
57
57
57
57
57
56
55
55
55
55
56
56
56
57
59
60
61
59
57
56
55
55
55
54
54
54
55
55
56
57
58
59
60
60
60
60
61
62
63
65
67
68
69
70
72
72
73
72
72
71
70
69
69
73
77
80
83
83
84
86
88
89
90
90
91
90
89
89
89
89
90
90
90
90
91
91
92
91
90
89
89
91
94
96
98
97
96
94
93
91
90
89
88
87
86
85
84
83
83
83
83
82
82
81
80
78
77
76
76
76
76
76
76
76
76
76
76
75
75
75
75
74
74
74
75
74
73
73
73
73
74
73
73
72
71
70
70
70
71
71
72
73
75
76
78
78
78
78
78
78
78
78
78
78
78
78
78
76
74
72
70
73
76
79
82
81
81
80
80
79
78
77
76
76
76
76
76
75
75
74
74
74
74
74
74
72
70
68
66
66
67
67
68
69
70
71
72
72
72
72
73
73
73
73
74
73
73
73
73
72
72
72
72
70
69
67
66
68
70
72
74
73
73
72
72
72
72
72
72
72
72
72
72
72
72
72
72
72
72
72
72
71
70
69
68
68
68
68
68
68
68
68
68
68
68
68
69
69
69
69
70
69
69
69
69
68
68
68
68
67
66
65
65
64
64
63
63
63
63
64
65
65
66
66
66
66
67
67
68
67
67
67
68
68
68
68
69
68
68
68
68
69
70
71
73
74
75
75
76
77
78
79
80
79
79
79
79
78
78
78
79
80
81
82
83
82
82
82
82
81
80
78
76
74
72
71
70
72
75
77
79
77
76
74
73
72
71
70
69
67
65
64
63
62
62
61
60
60
61
61
62
62
62
62
62
61
61
60
60
60
61
61
62
62
62
62
63
63
64
64
65
64
63
62
61
58
55
53
52
52
53
56
60
71
83
99
116
131
146
159
172
185
199
210
221
218
215
203
192
184
176
169
163
157
152
147
142
136
130
124
118
110
102
94
87
83
79
77
76
73
70
68
66
64
63
62
62
62
62
62
62
61
61
60
60
60
60
60
61
60
60
60
60
59
58
58
59
59
60
59
59
57
56
56
56
56
56
56
57
57
58
58
58
57
57
57
58
58
59
60
61
61
61
60
60
59
59
59
60
59
59
58
58
58
58
58
59
60
61
61
62
62
62
62
62
62
62
63
64
64
65
65
65
64
63
63
63
66
70
73
76
75
74
73
72
72
73
74
76
77
79
80
81
81
81
81
81
83
85
87
89
89
89
88
87
87
88
89
90
90
90
90
91
91
91
90
89
89
90
91
92
92
92
91
91
89
88
87
87
86
86
85
84
83
82
82
82
81
81
81
81
80
79
78
77
76
76
76
76
75
75
74
74
74
74
74
74
74
74
74
75
75
75
74
73
72
72
72
73
72
72
71
71
71
71
71
72
72
73
73
74
75
76
77
78
76
74
72
70
72
74
76
78
77
77
76
76
76
76
76
76
76
76
76
76
75
75
74
74
73
72
71
70
72
74
76
78
78
78
78
78
76
74
72
70
70
71
71
72
71
71
70
70
70
70
70
70
73
76
79
82
79
76
73
70
70
71
71
72
72
72
72
72
71
71
71
71
70
70
70
70
70
70
70
71
71
71
71
72
72
72
72
72
71
71
71
71
70
70
70
70
69
69
69
69
68
68
68
68
67
67
66
66
68
70
72
74
73
73
72
72
71
70
69
68
68
68
68
68
67
67
67
67
67
67
67
67
67
68
68
68
67
67
66
65
66
68
70
73
71
69
66
64
64
65
66
67
67
68
68
68
68
68
69
71
72
74
75
77
77
78
79
80
80
81
80
80
79
78
77
77
77
77
78
80
80
81
80
80
80
81
81
81
79
78
76
74
73
73
74
75
75
75
74
73
72
71
70
70
69
69
67
66
63
61
59
57
58
60
62
64
63
63
62
62
62
62
62
62
61
60
59
58
58
58
58
58
59
60
61
63
63
63
62
62
60
59
56
54
53
53
54
55
58
62
70
79
91
104
118
133
145
157
168
180
193
207
209
211
201
191
183
175
169
163
157
152
146
141
134
128
123
119
113
107
98
90
85
81
78
76
72
69
67
65
64
63
63
63
63
64
63
63
62
61
60
60
60
60
60
60
60
60
59
59
58
58
58
58
59
60
59
59
58
57
57
57
58
59
59
60
60
61
60
59
58
58
58
58
58
59
60
61
61
62
61
60
59
59
59
59
59
59
59
59
58
58
58
58
59
61
62
63
63
64
63
63
62
62
62
62
62
62
62
63
63
64
64
65
67
69
70
71
72
73
73
73
72
72
75
78
81
85
85
86
85
85
85
85
86
88
89
91
91
92
91
90
90
90
90
91
90
90
90
91
91
92
92
92
92
93
93
93
92
92
91
91
90
89
88
88
88
88
87
86
85
84
83
83
83
83
82
82
81
80
78
76
75
74
76
78
80
82
81
81
80
79
77
75
73
71
74
77
80
84
83
82
81
81
80
79
77
75
74
74
74
74
76
78
80
82
81
81
80
80
79
79
78
78
78
79
79
80
80
81
81
82
82
83
83
84
84
84
84
84
83
82
81
80
79
79
79
79
78
78
78
78
78
78
78
79
79
79
79
80
80
80
80
80
79
79
78
78
77
77
76
76
76
76
76
76
77
78
79
80
80
80
80
80
79
78
77
76
76
76
76
76
75
75
74
74
76
78
80
82
80
78
76
74
74
75
75
76
75
75
74
74
74
75
75
76
76
76
76
76
75
75
74
74
73
73
72
72
72
72
72
72
72
73
73
74
74
75
75
76
76
76
76
76
76
76
76
76
76
76
76
77
76
76
75
75
73
72
71
71
71
71
70
70
70
71
71
72
71
71
71
72
72
73
74
75
75
75
75
76
77
79
81
83
81
79
76
74
77
80
83
86
85
84
83
82
81
81
81
81
82
84
85
86
86
86
86
86
85
84
82
80
78
77
76
76
76
77
77
77
76
75
74
73
72
72
71
71
69
68
67
67
67
68
68
68
67
67
66
66
66
67
67
68
66
64
62
60
60
61
61
62
63
64
65
66
66
67
67
67
66
66
65
64
62
60
59
58
58
58
61
65
73
81
94
107
121
136
149
162
173
184
192
201
200
200
191
182
175
169
164
159
153
148
143
139
133
128
122
116
108
100
92
85
80
76
74
72
69
67
65
63
64
65
66
68
67
67
66
66
65
64
63
62
61
61
60
60
59
58
57
56
56
56
57
58
59
60
59
59
58
57
57
57
57
58
58
59
59
59
58
57
57
57
57
58
58
59
59
60
59
59
58
57
56
56
56
56
56
56
56
56
56
57
58
59
60
61
61
62
61
61
61
61
61
61
61
62
62
63
63
64
64
64
65
66
67
69
70
71
71
72
73
74
73
73
73
74
75
76
76
77
77
78
78
79
80
82
83
85
85
86
85
85
85
86
87
88
88
88
88
89
87
86
83
81
81
82
83
84
85
86
86
87
86
86
86
86
85
85
83
82
81
80
79
79
78
78
78
78
77
76
75
74
73
72
72
72
71
71
71
71
70
69
68
67
65
64
63
63
65
68
69
71
70
70
70
70
69
68
67
67
66
66
66
66
65
65
65
65
64
64
64
64
64
64
64
64
64
64
64
65
65
65
65
65
64
64
64
64
64
64
64
64
64
64
64
64
64
64
64
64
64
64
64
65
65
65
65
65
64
63
62
62
64
66
68
70
67
64
61
58
58
59
59
60
60
60
60
61
61
61
61
62
61
61
61
61
60
60
60
60
60
60
60
60
59
59
59
59
59
59
59
59
59
60
61
62
60
58
56
54
53
53
52
52
53
54
55
56
56
57
57
58
57
57
56
56
55
55
54
54
54
55
55
56
56
56
56
57
57
57
57
57
56
56
56
56
55
55
55
55
55
55
55
55
55
55
54
54
54
55
55
55
54
53
53
53
53
53
52
52
54
56
58
61
59
58
56
54
54
55
56
58
59
61
62
63
64
65
66
68
68
69
68
67
66
65
64
64
63
63
64
66
67
68
68
69
69
69
69
69
67
66
64
62
61
60
60
61
60
60
59
58
56
55
54
54
53
53
52
51
50
50
50
51
50
50
50
50
50
50
50
50
49
48
47
46
46
46
46
46
46
46
46
47
47
47
48
49
48
48
47
47
45
44
42
40
39
39
40
41
42
44
50
57
70
83
98
113
127
141
154
168
177
187
185
183
175
168
162
157
151
146
141
136
131
126
120
115
108
102
94
86
77
69
65
61
59
57
54
51
49
48
47
47
47
47
47
48
47
47
46
45
44
43
42
42
43
44
44
45
42
40
37
35
37
40
43
46
45
44
42
41
41
41
41
42
42
43
43
44
43
43
42
42
41
41
41
42
42
43
43
43
42
42
42
42
42
42
42
42
42
42
41
41
41
41
42
44
44
45
45
45
45
45
45
45
45
46
47
48
48
48
48
48
48
49
50
52
53
54
55
56
56
57
57
57
57
58
59
61
61
62
62
62
61
60
61
62
65
69
71
74
73
72
72
72
73
74
74
74
74
74
74
75
74
74
74
74
74
74
74
74
73
72
71
70
69
69
69
69
67
66
65
64
63
63
62
62
61
61
60
59
58
58
58
58
57
57
56
56
56
56
55
55
54
54
53
53
52
52
52
52
52
52
52
53
53
54
53
53
52
52
52
53
53
53
53
54
54
54
54
55
55
55
55
56
56
56
56
56
56
56
56
56
55
55
55
55
54
54
54
54
53
53
53
53
52
52
52
52
52
52
52
52
52
52
52
52
52
52
52
52
52
52
52
52
51
51
50
50
49
49
48
48
48
48
48
48
49
51
52
54
52
50
48
46
45
45
44
44
44
45
45
46
46
47
47
48
48
49
49
50
49
49
48
48
48
48
48
48
47
47
47
47
46
46
46
46
46
46
46
46
45
45
45
45
44
44
44
44
44
44
44
44
44
44
44
44
44
45
45
46
45
45
44
44
43
43
42
42
41
41
41
41
41
42
43
45
43
41
38
36
38
41
43
45
44
43
42
42
42
43
43
44
43
43
42
42
43
45
47
49
50
51
51
52
53
54
55
56
56
57
57
58
57
57
57
57
57
58
58
58
57
57
56
56
56
56
55
54
52
50
49
49
49
50
50
51
49
48
47
46
44
43
42
41
41
42
43
45
44
44
43
42
42
42
42
42
41
41
41
41
40
40
40
40
40
40
40
41
41
41
41
42
42
43
43
43
42
42
41
40
37
34
32
30
30
30
33
36
45
54
68
82
98
115
129
144
158
173
185
197
198
199
191
184
174
165
157
149
142
136
130
124
120
116
111
107
97
87
77
67
62
58
56
54
51
49
47
45
44
43
43
43
43
43
43
43
42
41
40
40
38
37
35
34
33
33
32
32
33
35
37
40
40
41
40
39
38
38
38
39
37
36
34
33
34
35
35
35
34
34
34
35
35
36
36
37
36
36
35
35
34
34
34
34
34
35
35
36
36
36
36
37
39
41
42
44
42
40
38
36
36
37
38
39
39
40
40
41
41
41
42
43
44
45
46
47
47
48
49
50
50
50
51
52
54
57
59
61
61
61
61
61
62
63
64
65
65
65
64
63
63
64
65
66
66
67
68
69
68
68
66
65
67
69
71
74
73
73
72
71
68
66
64
62
65
68
70
72
69
66
63
61
61
61
61
61
59
58
56
55
54
53
52
52
52
52
52
52
51
51
50
50
50
50
50
51
51
52
51
51
51
51
51
52
51
51
50
50
50
50
50
50
52
54
56
58
57
57
56
56
55
55
54
54
54
55
55
56
55
55
54
54
56
58
60
62
61
61
60
60
59
58
57
56
56
56
56
56
56
56
56
56
56
57
57
58
58
58
58
58
55
52
49
46
49
52
55
58
57
56
55
54
54
54
54
54
52
50
48
46
48
50
52
54
54
55
55
56
56
56
56
56
55
54
53
52
51
51
51
51
51
51
51
51
51
51
51
52
52
52
52
52
51
51
51
51
50
50
49
49
48
47
46
46
48
50
52
54
52
50
48
46
49
52
55
58
56
54
52
50
50
51
51
52
51
50
49
49
48
47
46
46
45
45
46
47
47
47
46
46
45
44
42
41
42
44
46
48
48
48
48
48
48
48
48
48
49
50
51
53
53
54
54
55
55
56
56
57
55
54
53
52
53
55
57
59
61
63
64
66
65
64
63
62
61
60
58
57
54
52
51
50
50
50
50
50
48
47
46
45
44
44
43
43
42
42
42
43
43
43
42
42
41
41
41
41
40
40
39
39
38
38
38
38
38
39
39
40
40
40
40
40
40
41
41
41
40
40
39
38
36
34
33
32
32
33
36
40
50
61
76
92
107
122
135
148
162
177
189
201
197
193
180
168
160
152
145
139
134
129
124
120
113
107
100
93
84
76
68
60
55
51
49
48
45
43
41
40
39
38
38
38
38
39
39
40
39
38
37
36
35
35
35
35
34
34
33
33
32
32
33
34
34
35
34
33
32
31
31
31
29
28
26
25
27
30
31
33
33
33
33
34
34
34
34
35
34
34
33
33
32
32
32
33
32
32
32
32
31
31
31
31
32
33
33
34
34
34
34
35
35
35
35
36
36
36
36
36
36
36
36
37
39
41
42
44
44
45
45
46
46
46
47
48
49
50
50
51
51
51
51
51
54
58
61
65
65
65
64
63
63
63
63
64
63
63
63
63
63
64
63
63
64
65
66
68
67
67
66
65
64
63
62
62
62
62
61
60
59
58
57
57
56
56
55
55
52
49
46
43
45
48
51
54
53
53
52
52
51
50
49
48
48
48
48
49
49
49
48
47
47
47
47
48
47
47
46
46
46
46
46
46
48
50
52
54
53
53
52
52
51
50
49
48
48
48
48
48
49
50
51
52
52
52
52
52
51
51
50
50
49
49
48
48
48
48
48
48
48
48
48
48
48
48
48
48
48
48
48
48
48
48
48
48
47
47
47
47
46
46
46
46
46
46
46
46
45
45
45
45
44
44
44
44
44
44
44
44
43
43
43
43
42
42
42
42
41
41
41
41
40
40
40
40
39
39
38
38
38
39
39
40
40
40
40
40
40
40
40
40
40
41
41
42
41
41
40
40
39
39
38
38
38
39
39
40
40
40
40
40
40
40
40
40
39
39
39
39
39
39
39
39
38
38
38
39
39
39
38
38
39
40
40
41
40
39
38
38
38
38
38
38
39
40
41
42
43
44
45
47
48
49
49
50
51
52
53
54
51
49
46
44
45
47
49
51
52
53
53
54
53
52
51
50
49
49
47
46
44
43
42
42
43
44
44
45
44
44
43
43
42
41
40
39
37
35
34
33
33
34
34
34
34
34
34
34
34
35
35
36
34
32
30
28
30
32
34
36
35
35
34
34
34
34
34
34
33
32
30
29
26
24
23
22
22
23
26
30
40
50
65
80
93
107
118
130
142
155
165
175
173
172
162
152
146
141
137
133
128
123
118
114
107
101
94
87
78
70
61
53
48
44
42
40
38
36
34
33
32
31
31
31
31
31
31
32
31
30
29
29
28
28
28
28
27
27
26
26
25
25
25
26
27
28
27
27
25
24
23
23
24
25
26
27
27
28
27
27
26
26
26
26
27
28
29
30
29
28
26
25
27
29
31
34
32
30
28
26
26
26
26
27
28
30
31
32
31
31
30
30
30
30
30
31
31
32
32
32
31
31
31
31
33
35
36
38
39
41
42
44
43
43
43
44
45
46
46
47
47
48
48
49
50
51
52
53
55
58
59
61
59
58
57
56
56
57
58
59
59
60
59
59
59
59
59
60
60
60
59
59
58
57
56
56
55
55
53
52
51
51
51
51
50
50
49
49
47
46
45
44
43
42
42
42
41
41
41
41
40
39
38
38
37
37
37
37
38
40
40
41
41
41
41
42
41
40
39
38
38
39
39
40
40
40
40
40
39
39
38
38
38
39
39
40
40
41
41
42
41
41
40
40
40
40
40
40
40
40
40
41
41
41
41
41
40
40
40
40
40
40
40
40
39
39
39
39
38
38
38
38
37
37
37
37
36
36
36
36
36
36
36
36
36
36
36
36
36
37
37
38
37
37
36
36
35
35
34
34
34
35
35
36
36
36
36
36
35
35
34
34
33
33
32
32
31
31
30
30
30
31
31
32
32
32
32
32
32
33
33
34
32
30
28
26
26
27
27
28
29
30
31
32
32
32
32
33
33
33
33
33
32
32
32
32
31
30
29
29
28
28
27
27
26
26
26
27
27
27
26
26
26
27
27
28
27
27
27
28
28
28
28
29
28
28
28
28
28
29
30
31
32
34
35
36
37
38
39
40
39
39
38
38
38
38
38
39
40
41
41
42
42
42
42
42
41
41
39
38
36
34
33
32
32
33
33
34
33
32
31
30
29
28
27
27
25
23
22
21
21
22
22
22
22
23
23
24
23
23
22
22
21
20
19
18
18
18
18
18
18
19
19
20
21
23
24
25
22
20
17
14
13
12
12
12
12
13
16
20
30
41
56
72
84
97
107
118
130
143
153
163
163
163
154
146
138
131
125
119
113
108
103
98
92
86
79
73
65
57
49
41
38
35
34
34
31
29
27
25
23
22
21
20
20
21
21
22
21
21
20
20
19
19
19
19
18
17
16
15
14
13
13
14
15
16
15
15
14
13
13
13
13
14
14
15
15
16
15
15
14
14
14
14
14
15
16
17
17
17
16
16
15
15
15
16
15
15
15
15
14
14
14
14
15
17
18
20
20
20
20
20
20
20
20
21
19
18
16
14
16
18
20
23
24
25
25
26
28
30
32
34
34
34
35
36
36
37
37
37
37
38
38
39
40
42
43
45
43
42
39
37
39
42
45
48
47
47
47
47
47
48
48
48
48
48
49
50
50
50
50
50
49
49
49
50
47
44
40
36
35
35
35
35
35
36
36
37
36
35
34
33
32
32
32
32
32
32
32
32
31
30
29
28
28
28
28
29
30
31
31
31
30
30
30
30
29
28
27
27
26
26
26
26
26
26
26
27
27
27
27
28
28
28
28
29
29
29
29
30
29
29
29
29
28
28
28
28
27
27
26
26
26
26
26
26
28
30
32
34
33
33
32
32
31
31
30
30
29
29
28
28
27
27
27
27
26
26
25
25
24
24
24
24
24
24
24
24
23
23
22
22
24
26
28
30
28
26
24
22
21
20
19
18
20
22
24
26
24
22
20
18
20
22
24
26
24
22
20
18
18
19
19
20
21
22
23
24
24
24
24
24
23
23
23
23
22
22
22
22
21
21
21
21
20
20
20
20
20
20
20
20
20
21
21
22
21
21
21
21
20
20
20
20
21
22
23
24
24
24
24
24
22
20
18
16
15
14
13
12
16
20
24
28
28
28
28
28
28
28
28
28
28
28
28
28
28
28
28
28
28
28
28
28
31
34
37
40
38
36
34
32
30
28
26
24
24
25
25
26
25
25
24
24
23
23
22
22
20
19
17
16
12
8
4
0
3
6
9
12
12
12
12
12
12
12
12
0
0
0
0
0
0
0
0
0
0
0
0
0
0
0
0
0
0
0
0
0
0
0
0
0
0
0
0
0
0
0
0
0
0
0
0
0
0
0
0
0
0
0
0
0
0
0
0
0
0
0
0
0
0
0
0
0
0
0
0
0
0
0
0
0
0
0
0
0
0
0
0
0
0
0
0
0
0
0
0
0
0
0
0
0
0
0
0
0
0
0
0
0
0
0
0
0
0
0
0
0
0
0
0
0
0
0
0
0
0
0
0
0
0
0
0
0
0
0
0
0
0
0
0
0
0
0
0
0
0
0
0
0
0
0
0
0
0
0
0
0
0
0
0
0
0
0
0
0
0
0
0
0
0
0
0
0
0
0
0
0
0
0
0
0
0
0
0
0
0
0
0
0
0
0
0
0
0
0
0
0
0
0
0
0
0
0
0
0
0
0
0
0
0
0
0
0
0
0
0
0
0
0
0
0
0
0
0
0
0
0
0
0
0
0
0
0
0
0
0
0
0
0
0
0
0
0
0
0
0
0
0
0
0
0
0
0
0
0
0
0
0
0
0
0
0
0
0
0
0
0
0
0
0
0
0
0
0
0
0
0
0
0
0
0
0
0
0
0
0
0
0
0
0
0
0
0
0
0
0
0
0
0
0
0
0
0
0
0
0
0
0
0
0
0
0
0
0
0
0
0
0
0
0
0
0
0
0
0
0
0
0
0
0
0
0
0
0
0
0
0
0
0
0
0
0
0
0
0
0
0
0
0
0
0
0
0
0
0
0
0
0
0
0
0
0
0
0
0
0
0
0
0
0
0
0
0
0
0
0
0
0
0
0
0
0
0
0
0
0
0
0
0
0
0
0
0
0
0
0
0
0
0
0
0
0
0
0
0
0
0
0
0
0
0
0
0
0
0
0
0
0
0
0
0
0
0
0
0
0
0
0
0
0
0
0
0
0
0
0
0
0
0
0
0
0
0
0
0
0
0
0
0
0
0
0
0
0
0
0
0
0
0
0
0
0
0
0
0
0
0
0
0
0
0
0
0
0
0
0
0
0
0
0
0
0
0
0
0
0
0
0
0
0
0
0
0
0
0
0
0
0
0
0
0
0
0
0
0
0
0
0
0
0
0
0
0
0
0
0
0
0
0
0
0
0
0
0
0
0
0
0
0
0
0
0
0
0
0
0
0
0
0
0
0
0
0
0
0
0
0
0
0
0
0
0
0
0
0
0
0
0
0
0
0
0
0
0
0
0
0
0
0
0
0
0
0
0
0
0
0
0
0
0
0
0
0
0
0
0
0
0
0
0
0
0
0
0
0
0
0
0
0
0
0
0
0
0
0
0
0
0
0
0
0
0
0
0
0
0
0
0
0
0
0
0
0
0
0
0
0
0
0
0
0
0
0
0
0
0
0
0
0
0
0
0
0
0
0
0
0
0
0
0
0
0
0
0
0
0
0
0
0
0
0
0
0
0
0
0
0
0
0
0
0
0
0
0
0
0
0
0
0
0
0
0
0
0
0
0
0
0
0
0
0
0
0
0
0
0
0
0
0
0
0
0
0
0
0
0
0
0
0
0
0
0
0
0
0
0
0
0
0
0
0
0
0
0
0
0
0
0
0
0
0
0
0
0
0
0
0
0
0
0
0
0
0
0
0
0
0
0
0
0
0
0
0
0
0
0
0
0
0
0
0
0
0
0
0
0
0
0
0
0
0
0
0
0
0
0
0
0
0
0
0
0
0
0
0
0
0
0
0
0
0
0
0
0
0
0
0
0
0
0
0
0
0
0
0
0
0
0
0
0
0
0
0
0
0
0
0
0
0
0
0
0
0
0
0
0
0
0
0
0
0
0
0
0
0
0
0
0
0
0
0
0
0
0
0
0
0
0
0
0
0
0
0
0
0
0
0
0
0
0
0
0
0
0
0
0
0
0
0
0
0
0
0
0
0
0
0
0
0
0
0
0
0
0
0
0
0
0
0
0
0
0
0
0
0
0
0
0
0
0
0
0
0
0
0
0
0
0
0
0
0
0
0
0
0
0
0
0
0
0
0
0
0
0
0
0
0
0
0
0
0
0
0
0
0
0
0
0
0
0
0
0
0
0
0
0
0
0
0
0
0
0
0
0
0
0
0
0
0
0
0
0
0
0
0
0
0
0
0
0
0
0
0
0
0
0
0
0
0
0
0
0
0
0
0
0
0
0
0
0
0
0
0
0
0
0
0
0
0
0
0
0
0
0
0
0
0
0
0
0
0
0
0
0
0
0
0
0
0
0
0
0
0
0
0
0
0
0
0
0
0
0
0
0
0
0
0
0
0
0
0
0
0
0
0
0
0
0
0
0
0
0
0
0
0
0
0
0
0
0
0
0
0
0
0
0
0
0
0
0
0
0
0
0
0
0
0
0
0
0
0
0
0
0
0
0
0
0
0
0
0
0
0
0
0
0
0
0
0
0
0
0
0
0
0
0
0
0
0
0
0
0
0
0
0
0
0
0
0
0
0
0
0
0
0
0
0
0
0
0
0
0
0
0
0
0
0
0
0
0
0
0
0
0
0
0
0
0
0
0
0
0
0
0
0
0
0
0
0
0
0
0
0
0
0
0
0
0
0
0
0
0
0
0
0
0
0
0
0
0
0
0
0
0
0
0
0
0
0
0
0
0
0
0
0
0
0
0
0
0
0
0
0
0
0
0
0
0
0
0
0
0
0
0
0
0
0
0
0
0
0
0
0
0
0
0
0
0
0
0
0
0
0
0
0
0
0
0
0
0
0
0
0
0
0
0
0
0
0
0
0
0
0
0
0
0
0
0
0
0
0
0
0
0
0
0
0
0
0
0
0
0
0
0
0
0
0
0
0
0
0
0
0
0
0
0
0
0
0
0
0
0
0
0
0
0
0
0
0
0
0
0
0
0
0
0
0
0
0
0
0
0
0
0
0
0
0
0
0
0
0
0
0
0
0
0
0
0
0
0
0
0
0
0
0
0
0
0
0
0
0
0
0
0
0
0
0
0
0
0
0
0
0
0
0
0
0
0
0
0
0
0
0
0
0
0
0
0
0
0
0
0
0
0
0
0
0
0
0
0
0
0
0
0
0
0
0
0
0
0
0
0
0
0
0
0
0
0
0
0
0
0
0
0
0
0
0
0
0
0
0
0
0
0
0
0
0
0
0
0
0
0
0
0
0
0
0
0
0
0
0
0
0
0
0
0
0
0
0
0
0
0
0
0
0
0
0
0
0
0
0
0
0
0
0
0
0
0
0
0
0
0
0
0
0
0
0
0
0
0
0
0
0
0
0
0
0
0
0
0
0
0
0
0
0
0
0
0
0
0
0
0
0
0
0
0
0
0
0
0
0
0
0
0
0
0
0
0
0
0
0
0
0
0
0
0
0
0
0
0
0
0
0
0
0
0
0
0
0
0
0
0
0
0
0
0
0
0
0
0
0
0
0
0
0
0
0
0
0
0
0
0
0
0
0
0
0
0
0
0
0
0
0
0
0
0
0
0
0
0
0
0
0
0
0
0
0
0
0
0
0
0
0
0
0
0
0
0
0
0
0
0
0
0
0
0
0
0
0
0
0
0
0
0
0
0
0
0
0
0
0
0
0
0
0
0
0
0
0
0
0
0
0
0
0
0
0
0
0
0
0
0
0
0
0
0
0
0
0
0
0
0
0
0
0
0
0
0
0
0
0
0
0
0
0
0
0
0
0
0
0
0
0
0
0
0
0
0
0
0
0
0
0
0
0
0
0
0
0
0
0
0
0
0
0
0
0
0
0
0
0
0
0
0
0
0
0
0
0
0
0
0
0
0
0
0
0
0
0
0
0
0
0
0
0
0
0
0
0
0
0
0
0
0
0
0
0
0
0
0
0
0
0
0
0
0
0
0
0
0
0
0
0
0
0
0
0
0
0
0
0
0
0
0
0
0
0
0
0
0
0
0
0
0
0
0
0
0
0
0
0
0
0
0
0
0
0
0
0
0
0
0
0
0
0
0
0
0
0
0
0
0
0
0
0
0
0
0
0
0
0
0
0
0
0
0
0
0
0
0
0
0
0
0
0
0
0
0
0
0
0
0
0
0
0
0
0
0
0
0
0
0
0
0
0
0
0
0
0
0
0
0
0
0
0
0
0
0
0
0
0
0
0
0
0
0
0
0
0
0
0
0
0
0
0
0
0
0
0
0
0
0
0
0
0
0
0
0
0
0
0
0
0
0
0
0
0
0
0
0
0
0
0
0
0
0
0
0
0
0
0
0
0
0
0
0
0
0
0
0
0
0
0
0
0
0
0
0
0
0
0
0
0
0
0
0
0
0
0
0
0
0
0
0
0
0
0
0
0
0
0
0
0
0
0
0
0
0
0
0
0
0
0
0
0
0
0
0
0
0
0
0
0
0
0
0
0
0
0
0
0
0
0
0
0
0
0
0
0
0
0
0
0
0
0
0
0
0
0
0
0
0
0
0
0
0
0
0
0
0
0
0
0
0
0
0
0
0
0
0
0
0
0
0
0
0
0
0
0
0
0
0
0
0
0
0
0
0
0
0
0
0
0
0
0
0
0
0
0
0
0
0
0
0
0
0
0
0
0
0
0
0
0
0
0
0
0
0
0
0
0
0
0
0
0
0
0
0
0
0
0
0
0
0
0
0
0
0
0
0
0
0
0
0
0
0
0
0
0
0
0
0
0
0
0
0
0
0
0
0
0
0
0
0
0
0
0
0
0
0
0
0
0
0
0
0
0
0
0
0
0
0
0
0
0
0
0
0
0
0
0
0
0
0
0
0
0
0
0
0
0
0
0
0
0
0
0
0
0
0
0
0
0
0
0
0
0
0
0
0
0
0
0
0
0
0
0
0
0
0
0
0
0
0
0
0
0
0
0
0
0
0
0
0
0
0
0
0
0
0
0
0
0
0
0
0
0
0
0
0
0
0
0
0
0
0
0
0
0
0
0
0
0
0
0
0
0
0
0
0
0
0
0
0
0
0
0
0
0
0
0
0
0
0
0
0
0
0
0
0
0
0
0
0
0
0
0
0
0
0
0
0
0
0
0
0
0
0
0
0
0
0
0
0
0
0
0
0
0
0
0
0
0
0
0
0
0
0
0
0
0
0
0
0
0
0
0
0
0
0
0
0
0
0
0
0
0
0
0
0
0
0
0
0
0
0
0
0
0
0
0
0
0
0
0
0
0
0
0
0
0
0
0
0
0
0
0
0
0
0
0
0
0
0
0
0
0
0
0
0
0
0
0
0
0
0
0
0
0
0
0
0
0
0
0
0
0
0
0
0
0
0
0
0
0
0
0
0
0
0
0
0
0
0
0
0
0
0
0
0
0
0
0
0
0
0
0
0
0
0
0
0
0
0
0
0
0
0
0
0
0
0
0
0
0
0
0
0
0
0
0
0
0
0
0
0
0
0
0
0
0
0
0
0
0
0
0
0
0
0
0
0
0
0
0
0
0
0
0
0
0
0
0
0
0
0
0
0
0
0
0
0
0
0
0
0
0
0
0
0
0
0
0
0
0
0
0
0
0
0
0
0
0
0
0
0
0
0
0
0
0
0
0
0
0
0
0
0
0
0
0
0
0
0
0
0
0
0
0
0
0
0
0
0
0
0
0
0
0
0
0
0
0
0
0
0
0
0
0
0
0
0
0
0
0
0
0
0
0
0
0
0
0
0
0
0
0
0
0
0
0
0
0
0
0
0
0
0
0
0
0
0
0
0
0
0
0
0
0
0
0
0
0
0
0
0
0
0
0
0
0
0
0
0
0
0
0
0
0
0
0
0
0
0
0
0
0
0
0
0
0
0
0
0
0
0
0
0
0
0
0
0
0
0
0
0
0
0
0
0
0
0
0
0
0
0
0
0
0
0
0
0
0
0
0
0
0
0
0
0
0
0
0
0
0
0
0
0
0
0
0
0
0
0
0
0
0
0
0
0
0
0
0
0
0
0
0
0
0
0
0
0
0
0
0
0
0
0
0
0
0
0
0
0
0
0
0
0
0
0
0
0
0
0
0
0
0
0
0
0
0
0
0
0
0
0
0
0
0
0
0
0
0
0
0
0
0
0
0
0
0
0
0
0
0
0
0
0
0
0
0
0
0
0
0
0
0
0
0
0
0
0
0
0
0
0
0
0
0
0
0
0
0
0
0
0
0
0
0
0
0
0
0
0
0
0
0
0
0
0
0
0
0
0
0
0
0
0
0
0
0
0
0
0
0
0
0
0
0
0
0
0
0
0
0
0
0
0
0
0
0
0
0
0
0
0
0
0
0
0
0
0
0
0
0
0
0
0
0
0
0
0
0
0
0
0
0
0
0
0
0
0
0
0
0
0
0
0
0
0
0
0
0
0
0
0
0
0
0
0
0
0
0
0
0
0
0
0
0
0
0
0
0
0
0
0
0
0
0
0
0
0
0
0
0
0
0
0
0
0
0
0
0
0
0
0
0
0
0
0
0
0
0
0
0
0
0
0
0
0
0
0
0
0
0
0
0
0
0
0
0
0
0
0
0
0
0
0
0
0
0
0
0
0
0
0
0
0
0
0
0
0
0
0
0
0
0
0
0
0
0
0
0
0
0
0
0
0
0
0
0
0
0
0
0
0
0
0
0
0
0
0
0
0
0
0
0
0
0
0
0
0
0
0
0
0
0
0
0
0
0
0
0
0
0
0
0
0
0
0
0
0
0
0
0
0
0
0
0
0
0
0
0
0
0
0
0
0
0
0
0
0
0
0
0
0
0
0
0
0
0
0
0
0
0
0
0
0
0
0
0
0
0
0
0
0
0
0
0
0
0
0
0
0
0
0
0
0
0
0
0
0
0
0
0
0
0
0
0
0
0
0
0
0
0
0
0
0
0
0
0
0
0
0
0
0
0
0
0
0
0
0
0
0
0
0
0
0
0
0
0
0
0
0
0
0
0
0
0
0
0
0
0
0
0
0
0
0
0
0
0
0
0
0
0
0
0
0
0
0
0
0
0
0
0
0
0
0
0
0
0
0
0
0
0
0
0
0
0
0
0
0
0
0
0
0
0
0
0
0
0
0
0
0
0
0
0
0
0
0
0
0
0
0
0
0
0
0
0
0
0
0
0
0
0
0
0
0
0
0
0
0
0
0
0
0
0
0
0
0
0
0
0
0
0
0
0
0
0
0
0
0
0
0
0
0
0
0
0
0
0
0
0
0
0
0
0
0
0
0
0
0
0
0
0
0
0
0
0
0
0
0
0
0
0
0
0
0
0
0
0
0
0
0
0
0
0
0
0
0
0
0
0
0
0
0
0
0
0
0
0
0
0
0
0
0
0
0
0
0
0
0
0
0
0
0
0
0
0
0
0
0
0
0
0
0
0
0
0
0
0
0
0
0
0
0
0
0
0
0
0
0
0
0
0
0
0
0
0
0
0
0
0
0
0
0
0
0
0
0
0
0
0
0
0
0
0
0
0
0
0
0
0
0
0
0
0
0
0
0
0
0
0
0
0
0
0
0
0
0
0
0
0
0
0
0
0
0
0
0
0
0
0
0
0
0
0
0
0
0
0
0
0
0
0
0
0
0
0
0
0
0
0
0
0
0
0
0
0
0
0
0
0
0
0
0
0
0
0
0
0
0
0
0
0
0
0
0
0
0
0
0
0
0
0
0
0
0
0
0
0
0
0
0
0
0
0
0
0
0
0
0
0
0
0
0
0
0
0
0
0
0
0
0
0
0
0
0
0
0
0
0
0
0
0
0
0
0
0
0
0
0
0
0
0
0
0
0
0
0
0
0
0
0
0
0
0
0
0
0
0
0
0
0
0
0
0
0
0
0
0
0
0
0
0
0
0
0
0
0
0
0
0
0
0
0
0
0
0
0
0
0
0
0
0
0
0
0
0
0
0
0
0
0
0
0
0
0
0
0
0
0
0
0
0
0
0
0
0
0
0
0
0
0
0
0
0
0
0
0
0
0
0
0
0
0
0
0
0
0
0
0
0
0
0
0
0
0
0
0
0
0
0
0
0
0
0
0
0
0
0
0
0
0
0
0
0
0
0
0
0
0
0
0
0
0
0
0
0
0
0
0
0
0
0
0
0
0
0
0
0
0
0
0
0
0
0
0
0
0
0
0
0
0
0
0
0
0
0
0
0
0
0
0
0
0
0
0
0
0
0
0
0
0
0
0
0
0
0
0
0
0
0
0
0
0
0
0
0
0
0
0
0
0
0
0
0
0
0
0
0
0
0
0
0
0
0
0
0
0
0
0
0
0
0
0
0
0
0
0
0
0
0
0
0
0
0
0
0
0
0
0
0
0
0
0
0
0
0
0
0
0
0
0
0
0
0
0
0
0
0
0
0
0
0
0
0
0
0
0
0
0
0
0
0
0
0
0
0
0
0
0
0
0
0
0
0
0
0
0
0
0
0
0
0
0
0
0
0
0
0
0
0
0
0
0
0
0
0
0
0
0
0
0
0
0
0
0
0
0
0
0
0
0
0
0
0
0
0
0
0
0
0
0
0
0
0
0
0
0
0
0
0
0
0
0
0
0
0
0
0
0
0
0
0
0
0
0
0
0
0
0
0
0
0
0
0
0
0
0
0
0
0
0
0
0
0
0
0
0
0
0
0
0
0
0
0
0
0
0
0
0
0
0
0
0
0
0
0
0
0
0
0
0
0
0
0
0
0
0
0
0
0
0
0
0
0
0
0
0
0
0
0
0
0
0
0
0
0
0
0
0
0
0
0
0
0
0
0
0
0
0
0
0
0
0
0
0
0
0
0
0
0
0
0
0
0
0
0
0
0
0
0
0
0
0
0
0
0
0
0
0
0
0
0
0
0
0
0
0
0
0
0
0
0
0
0
0
0
0
0
0
0
0
0
0
0
0
0
0
0
0
0
0
0
0
0
0
0
0
0
0
0
0
0
0
0
0
0
0
0
0
0
0
0
0
0
0
0
0
0
0
0
0
0
0
0
0
0
0
0
0
0
0
0
0
0
0
0
0
0
0
0
0
0
0
0
0
0
0
0
0
0
0
0
0
0
0
0
0
0
0
0
0
0
0
0
0
0
0
0
0
0
0
0
0
0
0
0
0
0
0
0
0
0
0
0
0
0
0
0
0
0
0
0
0
0
0
0
0
0
0
0
0
0
0
0
0
0
0
0
0
0
0
0
0
0
0
0
0
0
0
0
0
0
0
0
0
0
0
0
0
0
0
0
0
0
0
0
0
0
0
0
0
0
0
0
0
0
0
0
0
0
0
0
0
0
0
0
0
0
0
0
0
0
0
0
0
0
0
0
0
0
0
0
0
0
0
0
0
0
0
0
0
0
0
0
0
0
0
0
0
0
0
0
0
0
0
0
0
0
0
0
0
0
0
0
0
0
0
0
0
0
0
0
0
0
0
0
0
0
0
0
0
0
0
0
0
0
0
0
0
0
0
0
0
0
0
0
0
0
0
0
0
0
0
0
0
0
0
0
0
0
0
0
0
0
0
0
0
0
0
0
0
0
0
0
0
0
0
0
0
0
0
0
0
0
0
0
0
0
0
0
0
0
0
0
0
0
0
0
0
0
0
0
0
0
0
0
0
0
0
0
0
0
0
0
0
0
0
0
0
0
0
0
0
0
0
0
0
0
0
0
0
0
0
0
0
0
0
0
0
0
0
0
0
0
0
0
0
0
0
0
0
0
0
0
0
0
0
0
0
0
0
0
0
0
0
0
0
0
0
0
0
0
0
0
0
0
0
0
0
0
0
0
0
0
0
0
0
0
0
0
0
0
0
0
0
0
0
0
0
0
0
0
0
0
0
0
0
0
0
0
0
0
0
0
0
0
0
0
0
0
0
0
0
0
0
0
0
0
0
0
0
0
0
0
0
0
0
0
0
0
0
0
0
0
0
0
0
0
0
0
0
0
0
0
0
0
0
0
0
0
0
0
0
0
0
0
0
0
0
0
0
0
0
0
0
0
0
0
0
0
0
0
0
0
0
0
0
0
0
0
0
0
0
0
0
0
0
0
0
0
0
0
0
0
0
0
0
0
0
0
0
0
0
0
0
0
0
0
0
0
0
0
0
0
0
0
0
0
0
0
0
0
0
0
0
0
0
0
0
0
0
0
0
0
0
0
0
0
0
0
0
0
0
0
0
0
0
0
0
0
0
0
0
0
0
0
0
0
0
0
0
0
0
0
0
0
0
0
0
0
0
0
0
0
0
0
0
0
0
0
0
0
0
0
0
0
0
0
0
0
0
0
0
0
0
0
0
0
0
0
0
0
0
0
0
0
0
0
0
0
0
0
0
0
0
0
0
0
0
0
0
0
0
0
0
0
0
0
0
0
0
0
0
0
0
0
0
0
0
0
0
0
0
0
0
0
0
0
0
0
0
0
0
0
0
0
0
0
0
0
0
0
0
0
0
0
0
0
0
0
0
0
0
0
0
0
0
0
0
0
0
0
0
0
0
0
0
0
0
0
0
0
0
0
0
0
0
0
0
0
0
0
0
0
0
0
0
0
0
0
0
0
0
0
0
0
0
0
0
0
0
0
0
0
0
0
0
0
0
0
0
0
0
0
0
0
0
0
0
0
0
0
0
0
0
0
0
0
0
0
0
0
0
0
0
0
0
0
0
0
0
0
0
0
0
0
0
0
0
0
0
0
0
0
0
0
0
0
0
0
0
0
0
0
0
0
0
0
0
0
0
0
0
0
0
0
0
0
0
0
0
0
0
0
0
0
0
0
0
0
0
0
0
0
0
0
0
0
0
0
0
0
0
0
0
0
0
0
0
0
0
0
0
0
0
0
0
0
0
0
0
0
0
0
0
0
0
0
0
0
0
0
0
0
0
0
0
0
0
0
0
0
0
0
0
0
0
0
0
0
0
0
0
0
0
0
0
0
0
0
0
0
0
0
0
0
0
0
0
0
0
0
0
0
0
0
0
0
0
0
0
0
0
0
0
0
0
0
0
0
0
0
0
0
0
0
0
0
0
0
0
0
0
0
0
0
0
0
0
0
0
0
0
0
0
0
0
0
0
0
0
0
0
0
0
0
0
0
0
0
0
0
0
0
0
0
0
0
0
0
0
0
0
0
0
0
0
0
0
0
0
0
0
0
0
0
0
0
0
0
0
0
0
0
0
0
0
0
0
0
0
0
0
0
0
0
0
0
0
0
0
0
0
0
0
0
0
0
0
0
0
0
0
0
0
0
0
0
0
0
0
0
0
0
0
0
0
0
0
0
0
0
0
0
0
0
0
0
0
0
0
0
0
0
0
0
0
0
0
0
0
0
0
0
0
0
0
0
0
0
0
0
0
0
0
0
0
0
0
0
0
0
0
0
0
0
0
0
0
0
0
0
0
0
0
0
0
0
0
0
0
0
0
0
0
0
0
0
0
0
0
0
0
0
0
0
0
0
0
0
0
0
0
0
0
0
0
0
0
0
0
0
0
0
0
0
0
0
0
0
0
0
0
0
0
0
0
0
0
0
0
0
0
0
0
0
0
0
0
0
0
0
0
0
0
0
0
0
0
0
0
0
0
0
0
0
0
0
0
0
0
0
0
0
0
0
0
0
0
0
0
0
0
0
0
0
0
0
0
0
0
0
0
0
0
0
0
0
0
0
0
0
0
0
0
0
0
0
0
0
0
0
0
0
0
0
0
0
0
0
0
0
0
0
0
0
0
0
0
0
0
0
0
0
0
0
0
0
0
0
0
0
0
0
0
0
0
0
0
0
0
0
0
0
0
0
0
0
0
0
0
0
0
0
0
0
0
0
0
0
0
0
0
0
0
0
0
0
0
0
0
0
0
0
0
0
0
0
0
0
0
0
0
0
0
0
0
0
0
0
0
0
0
0
0
0
0
0
0
0
0
0
0
0
0
0
0
0
0
0
0
0
0
0
0
0
0
0
0
0
0
0
0
0
0
0
0
0
0
0
0
0
0
0
0
0
0
0
0
0
0
0
0
0
0
0
0
0
0
0
0
0
0
0
0
0
0
0
0
0
0
0
0
0
0
0
0
0
0
0
0
0
0
0
0
0
0
0
0
0
0
0
0
0
0
0
0
0
0
0
0
0
0
0
0
0
0
0
0
0
0
0
0
0
0
0
0
0
0
0
0
0
0
0
0
0
0
0
0
0
0
0
0
0
0
0
0
0
0
0
0
0
0
0
0
0
0
0
0
0
0
0
0
0
0
0
0
0
0
0
0
0
0
0
0
0
0
0
0
0
0
0
0
0
0
0
0
0
0
0
0
0
0
0
0
0
0
0
0
0
0
0
0
0
0
0
0
0
0
0
0
0
0
0
0
0
0
0
0
0
0
0
0
0
0
0
0
0
0
0
0
0
0
0
0
0
0
0
0
0
0
0
0
0
0
0
0
0
0
0
0
0
0
0
0
0
0
0
0
0
0
0
0
0
0
0
0
0
0
0
0
0
0
0
0
0
0
0
0
0
0
0
0
0
0
0
0
0
0
0
0
0
0
0
0
0
0
0
0
0
0
0
0
0
0
0
0
0
0
0
0
0
0
0
0
0
0
0
0
0
0
0
0
0
0
0
0
0
0
0
0
0
0
0
0
0
0
0
0
0
0
0
0
0
0
0
0
0
0
0
0
0
0
0
0
0
0
0
0
0
0
0
0
0
0
0
0
0
0
0
0
0
0
0
0
0
0
0
0
0
0
0
0
0
0
0
0
0
0
0
0
0
0
0
0
0
0
0
0
0
0
0
0
0
0
0
0
0
0
0
0
0
0
0
0
0
0
0
0
0
0
0
0
0
0
0
0
0
0
0
0
0
0
0
0
0
0
0
0
0
0
0
0
0
0
0
0
0
0
0
0
0
0
0
0
0
0
0
0
0
0
0
0
0
0
0
0
0
0
0
0
0
0
0
0
0
0
0
0
0
0
0
0
0
0
0
0
0
0
0
0
0
0
0
0
0
0
0
0
0
0
0
0
0
0
0
0
0
0
0
0
0
0
0
0
0
0
0
0
0
0
0
0
0
0
0
0
0
0
0
0
0
0
0
0
0
0
0
0
0
0
0
0
0
0
0
0
0
0
0
0
0
0
0
0
0
0
0
0
0
0
0
0
0
0
0
0
0
0
0
0
0
0
0
0
0
0
0
0
0
0
0
0
0
0
0
0
0
0
0
0
0
0
0
0
0
0
0
0
0
0
0
0
0
0
0
0
0
0
0
0
0
0
0
0
0
0
0
0
0
0
0
0
0
0
0
0
0
0
0
0
0
0
0
0
0
0
0
0
0
0
0
0
0
0
0
0
0
0
0
0
0
0
0
0
0
0
0
0
0
0
0
0
0
0
0
0
0
0
0
0
0
0
0
0
0
0
0
0
0
0
0
0
0
0
0
0
0
0
0
0
0
0
0
0
0
0
0
0
0
0
0
0
0
0
0
0
0
0
0
0
0
0
0
0
0
0
0
0
0
0
0
0
0
0
0
0
0
0
0
0
0
0
0
0
0
0
0
0
0
0
0
0
0
0
0
0
0
0
0
0
0
0
0
0
0
0
0
0
0
0
0
0
0
0
0
0
0
0
0
0
0
0
0
0
0
0
0
0
0
0
0
0
0
0
0
0
0
0
0
0
0
0
0
0
0
0
0
0
0
0
0
0
0
0
0
0
0
0
0
0
0
0
0
0
0
0
0
0
0
0
0
0
0
0
0
0
0
0
0
0
0
0
0
0
0
0
0
0
0
0
0
0
0
0
0
0
0
0
0
0
0
0
0
0
0
0
0
0
0
0
0
0
0
0
0
0
0
0
0
0
0
0
0
0
0
0
0
0
0
0
0
0
0
0
0
0
0
0
0
0
0
0
0
0
0
0
0
0
0
0
0
0
0
0
0
0
0
0
0
0
0
0
0
0
0
0
0
0
0
0
0
0
0
0
0
0
0
0
0
0
0
0
0
0
0
0
0
0
0
0
0
0
0
0
0
0
0
0
0
0
0
0
0
0
0
0
0
0
0
0
0
0
0
0
0
0
0
0
0
0
0
0
0
0
0
0
0
0
0
0
0
0
0
0
0
0
0
0
0
0
0
0
0
0
0
0
0
0
0
0
0
0
0
0
0
0
0
0
0
0
0
0
0
0
0
0
0
0
0
0
0
0
0
0
0
0
0
0
0
0
0
0
0
0
0
0
0
0
0
0
0
0
0
0
0
0
0
0
0
0
0
0
0
0
0
0
0
0
0
0
0
0
0
0
0
0
0
0
0
0
0
0
0
0
0
0
0
0
0
0
0
0
0
0
0
0
0
0
0
0
0
0
0
0
0
0
0
0
0
0
0
0
0
0
0
0
0
0
0
0
0
0
0
0
0
0
0
0
0
0
0
0
0
0
0
0
0
0
0
0
0
0
0
0
0
0
0
0
0
0
0
0
0
0
0
0
0
0
0
0
0
0
0
0
0
0
0
0
0
0
0
0
0
0
0
0
0
0
0
0
0
0
0
0
0
0
0
0
0
0
0
0
0
0
0
0
0
0
0
0
0
0
0
0
0
0
0
0
0
0
0
0
0
0
0
0
0
0
0
0
0
0
0
0
0
0
0
0
0
0
0
0
0
0
0
0
0
0
0
0
0
0
0
0
0
0
0
0
0
0
0
0
0
0
0
0
0
0
0
0
0
0
0
0
0
0
0
0
0
0
0
0
0
0
0
0
0
0
0
0
0
0
0
0
0
0
0
0
0
0
0
0
0
0
0
0
0
0
0
0
0
0
0
0
0
0
0
0
0
0
0
0
0
0
0
0
0
0
0
0
0
0
0
0
0
0
0
0
0
0
0
0
0
0
0
0
0
0
0
0
0
0
0
0
0
0
0
0
0
0
0
0
0
0
0
0
0
0
0
0
0
0
0
0
0
0
0
0
0
0
0
0
0
0
0
0
0
0
0
0
0
0
0
0
0
0
0
0
0
0
0
0
0
0
0
0
0
0
0
0
0
0
0
0
0
0
0
0
0
0
0
0
0
0
0
0
0
0
0
0
0
0
0
0
0
0
0
0
0
0
0
0
0
0
0
0
0
0
0
0
0
0
0
0
0
0
0
0
0
0
0
0
0
0
0
0
0
0
0
0
0
0
0
0
0
0
0
0
0
0
0
0
0
0
0
0
0
0
0
0
0
0
0
0
0
0
0
0
0
0
0
0
0
0
0
0
0
0
0
0
0
0
0
0
0
0
0
0
0
0
0
0
0
0
0
0
0
0
0
0
0
0
0
0
0
0
0
0
0
0
0
0
0
0
0
0
0
0
0
0
0
0
0
0
0
0
0
0
0
0
0
0
0
0
0
0
0
0
0
0
0
0
0
0
0
0
0
0
0
0
0
0
0
0
0
0
0
0
0
0
0
0
0
0
0
0
0
0
0
0
0
0
0
0
0
0
0
0
0
0
0
0
0
0
0
0
0
0
0
0
0
0
0
0
0
0
0
0
0
0
0
0
0
0
0
0
0
0
0
0
0
0
0
0
0
0
0
0
0
0
0
0
0
0
0
0
0
0
0
0
0
0
0
0
0
0
0
0
0
0
0
0
0
0
0
0
0
0
0
0
0
0
0
0
0
0
0
0
0
0
0
0
0
0
0
0
0
0
0
0
0
0
0
0
0
0
0
0
0
0
0
0
0
0
0
0
0
0
0
0
0
0
0
0
0
0
0
0
0
0
0
0
0
0
0
0
0
0
0
0
0
0
0
0
0
0
0
0
0
0
0
0
0
0
0
0
0
0
0
0
0
0
0
0
0
0
0
0
0
0
0
0
0
0
0
0
0
0
0
0
0
0
0
0
0
0
0
0
0
0
0
0
0
0
0
0
0
0
0
0
0
0
0
0
0
0
0
0
0
0
0
0
0
0
0
0
0
0
0
0
0
0
0
0
0
0
0
0
0
0
0
0
0
0
0
0
0
0
0
0
0
0
0
0
0
0
0
0
0
0
0
0
0
0
0
0
0
0
0
0
0
0
0
0
0
0
0
0
0
0
0
0
0
0
0
0
0
0
0
0
0
0
0
0
0
0
0
0
0
0
0
0
0
0
0
0
0
0
0
0
0
0
0
0
0
0
0
0
0
0
0
0
0
0
0
0
0
0
0
0
0
0
0
0
0
0
0
0
0
0
0
0
0
0
0
0
0
0
0
0
0
0
0
0
0
0
0
0
0
0
0
0
0
0
0
0
0
0
0
0
0
0
0
0
0
0
0
0
0
0
0
0
0
0
0
0
0
0
0
0
0
0
0
0
0
0
0
0
0
0
0
0
0
0
0
0
0
0
0
0
0
0
0
0
0
0
0
0
0
0
0
0
0
0
0
0
0
0
0
0
0
0
0
0
0
0
0
0
0
0
0
0
0
0
0
0
0
0
0
0
0
0
0
0
0
0
0
0
0
0
0
0
0
0
0
0
0
0
0
0
0
0
0
0
0
0
0
0
0
0
0
0
0
0
0
0
0
0
0
0
0
0
0
0
0
0
0
0
0
0
0
0
0
0
0
0
0
0
0
0
0
0
0
0
0
0
0
0
0
0
0
0
0
0
0
0
0
0
0
0
0
0
0
0
0
0
0
0
0
0
0
0
0
0
0
0
0
0
0
0
0
0
0
0
0
0
0
0
0
0
0
0
0
0
0
0
0
0
0
0
0
0
0
0
0
0
0
0
0
0
0
0
0
0
0
0
0
0
0
0
0
0
0
0
0
0
0
0
0
0
0
0
0
0
0
0
0
0
0
0
0
0
0
0
0
0
0
0
0
0
0
0
0
0
0
0
0
0
0
0
0
0
0
0
0
0
0
0
0
0
0
0
0
0
0
0
0
0
0
0
0
0
0
0
0
0
0
0
0
0
0
0
0
0
0
0
0
0
0
0
0
0
0
0
0
0
0
0
0
0
0
0
0
0
0
0
0
0
0
0
0
0
0
0
0
0
0
0
0
0
0
0
0
0
0
0
0
0
0
0
0
0
0
0
0
0
0
0
0
0
0
0
0
0
0
0
0
0
0
0
0
0
0
0
0
0
0
0
0
0
0
0
0
0
0
0
0
0
0
0
0
0
0
0
0
0
0
0
0
0
0
0
0
0
0
0
0
0
0
0
0
0
0
0
0
0
0
0
0
0
0
0
0
0
0
0
0
0
0
0
0
0
0
0
0
0
0
0
0
0
0
0
0
0
0
0
0
0
0
0
0
0
0
0
0
0
0
0
0
0
0
0
0
0
0
0
0
0
0
0
0
0
0
0
0
0
0
0
0
0
0
0
0
0
0
0
0
0
0
0
0
0
0
0
0
0
0
0
0
0
0
0
0
0
0
0
0
0
0
0
0
0
0
0
0
0
0
0
0
0
0
0
0
0
0
0
0
0
0
0
0
0
0
0
0
0
0
0
0
0
0
0
0
0
0
0
0
0
0
0
0
0
0
0
0
0
0
0
0
0
0
0
0
0
0
0
0
0
0
0
0
0
0
0
0
0
0
0
0
0
0
0
0
0
0
0
0
0
0
0
0
0
0
0
0
0
0
0
0
0
0
0
0
0
0
0
0
0
0
0
0
0
0
0
0
0
0
0
0
0
0
0
0
0
0
0
0
0
0
0
0
0
0
0
0
0
0
0
0
0
0
0
0
0
0
0
0
0
0
0
0
0
0
0
0
0
0
0
0
0
0
0
0
0
0
0
0
0
0
0
0
0
0
0
0
0
0
0
0
0
0
0
0
0
0
0
0
0
0
0
0
0
0
0
0
0
0
0
0
0
0
0
0
0
0
0
0
0
0
0
0
0
0
0
0
0
0
0
0
0
0
0
0
0
0
0
0
0
0
0
0
0
0
0
0
0
0
0
0
0
0
0
0
0
0
0
0
0
0
0
0
0
0
0
0
0
0
0
0
0
0
0
0
0
0
0
0
0
0
0
0
0
0
0
0
0
0
0
0
0
0
0
0
0
0
0
0
0
0
0
0
0
0
0
0
0
0
0
0
0
0
0
0
0
0
0
0
0
0
0
0
0
0
0
0
0
0
0
0
0
0
0
0
0
0
0
0
0
0
0
0
0
0
0
0
0
0
0
0
0
0
0
0
0
0
0
0
0
0
0
0
0
0
0
0
0
0
0
0
0
0
0
0
0
0
0
0
0
0
0
0
0
0
0
0
0
0
0
0
0
0
0
0
0
0
0
0
0
0
0
0
0
0
0
0
0
0
0
0
0
0
0
0
0
0
0
0
0
0
0
0
0
0
0
0
0
0
0
0
0
0
0
0
0
0
0
0
0
0
0
0
0
0
0
0
0
0
0
0
0
0
0
0
0
0
0
0
0
0
0
0
0
0
0
0
0
0
0
0
0
0
0
0
0
0
0
0
0
0
0
0
0
0
0
0
0
0
0
0
0
0
0
0
0
0
0
0
0
0
0
0
0
0
0
0
0
0
0
0
0
0
0
0
0
0
0
0
0
0
0
0
0
0
0
0
0
0
0
0
0
0
0
0
0
0
0
0
0
0
0
0
0
0
0
0
0
0
0
0
0
0
0
0
0
0
0
0
0
0
0
0
0
0
0
0
0
0
0
0
0
0
0
0
0
0
0
0
0
0
0
0
0
0
0
0
0
0
0
0
0
0
0
0
0
0
0
0
0
0
0
0
0
0
0
0
0
0
0
0
0
0
0
0
0
0
0
0
0
0
0
0
0
0
0
0
0
0
0
0
0
0
0
0
0
0
0
0
0
0
0
0
0
0
0
0
0
0
0
0
0
0
0
0
0
0
0
0
0
0
0
0
0
0
0
0
0
0
0
0
0
0
0
0
0
0
0
0
0
0
0
0
0
0
0
0
0
0
0
0
0
0
0
0
0
0
0
0
0
0
0
0
0
0
0
0
0
0
0
0
0
0
0
0
0
0
0
0
0
0
0
0
0
0
0
0
0
0
0
0
0
0
0
0
0
0
0
0
0
0
0
0
0
0
0
0
0
0
0
0
0
0
0
0
0
0
0
0
0
0
0
0
0
0
0
0
0
0
0
0
0
0
0
0
0
0
0
0
0
0
0
0
0
0
0
0
0
0
0
0
0
0
0
0
0
0
0
0
0
0
0
0
0
0
0
0
0
0
0
0
0
0
0
0
0
0
0
0
0
0
0
0
0
0
0
0
0
0
0
0
0
0
0
0
0
0
0
0
0
0
0
0
0
0
0
0
0
0
0
0
0
0
0
0
0
0
0
0
0
0
0
0
0
0
0
0
0
0
0
0
0
0
0
0
0
0
0
0
0
0
0
0
0
0
0
0
0
0
0
0
0
0
0
0
0
0
0
0
0
0
0
0
0
0
0
0
0
0
0
0
0
0
0
0
0
0
0
0
0
0
0
0
0
0
0
0
0
0
0
0
0
0
0
0
0
0
0
0
0
0
0
0
0
0
0
0
0
0
0
0
0
0
0
0
0
0
0
0
0
0
0
0
0
0
0
0
0
0
0
0
0
0
0
0
0
0
0
0
0
0
0
0
0
0
0
0
0
0
0
0
0
0
0
0
0
0
0
0
0
0
0
0
0
0
0
0
0
0
0
0
0
0
0
0
0
0
0
0
0
0
0
0
0
0
0
0
0
0
0
0
0
0
0
0
0
0
0
0
0
0
0
0
0
0
0
0
0
0
0
0
0
0
0
0
0
0
0
0
0
0
0
0
0
0
0
0
0
0
0
0
0
0
0
0
0
0
0
0
0
0
0
0
0
0
0
0
0
0
0
0
0
0
0
0
0
0
0
0
0
0
0
0
0
0
0
0
0
0
0
0
0
0
0
0
0
0
0
0
0
0
0
0
0
0
0
0
0
0
0
0
0
0
0
0
0
0
0
0
0
0
0
0
0
0
0
0
0
0
0
0
0
0
0
0
0
0
0
0
0
0
0
0
0
0
0
0
0
0
0
0
0
0
0
0
0
0
0
0
0
0
0
0
0
0
0
0
0
0
0
0
0
0
0
0
0
0
0
0
0
0
0
0
0
0
0
0
0
0
0
0
0
0
0
0
0
0
0
0
0
0
0
0
0
0
0
0
0
0
0
0
0
0
0
0
0
0
0
0
0
0
0
0
0
0
0
0
0
0
0
0
0
0
0
0
0
0
0
0
0
0
0
0
0
0
0
0
0
0
0
0
0
0
0
0
0
0
0
0
0
0
0
0
0
0
0
0
0
0
0
0
0
0
0
0
0
0
0
0
0
0
0
0
0
0
0
0
0
0
0
0
0
0
0
0
0
0
0
0
0
0
0
0
0
0
0
0
0
0
0
0
0
0
0
0
0
0
0
0
0
0
0
0
0
0
0
0
0
0
0
0
0
0
0
0
0
0
0
0
0
0
0
0
0
0
0
0
0
0
0
0
0
0
0
0
0
0
0
0
0
0
0
0
0
0
0
0
0
0
0
0
0
0
0
0
0
0
0
0
0
0
0
0
0
0
0
0
0
0
0
0
0
0
0
0
0
0
0
0
0
0
0
0
0
0
0
0
0
0
0
0
0
0
0
0
0
0
0
0
0
0
0
0
0
0
0
0
0
0
0
0
0
0
0
0
0
0
0
0
0
0
0
0
0
0
0
0
0
0
0
0
0
0
0
0
0
0
0
0
0
0
0
0
0
0
0
0
0
0
0
0
0
0
0
0
0
0
0
0
0
0
0
0
0
0
0
0
0
0
0
0
0
0
0
0
0
0
0
0
0
0
0
0
0
0
0
0
0
0
0
0
0
0
0
0
0
0
0
0
0
0
0
0
0
0
0
0
0
0
0
0
0
0
0
0
0
0
0
0
0
0
0
0
0
0
0
0
0
0
0
0
0
0
0
0
0
0
0
0
0
0
0
0
0
0
0
0
0
0
0
0
0
0
0
0
0
0
0
0
0
0
0
0
0
0
0
0
0
0
0
0
0
0
0
0
0
0
0
0
0
0
0
0
0
0
0
0
0
0
0
0
0
0
0
0
0
0
0
0
0
0
0
0
0
0
0
0
0
0
0
0
0
0
0
0
0
0
0
0
0
0
0
0
0
0
0
0
0
0
0
0
0
0
0
0
0
0
0
0
0
0
0
0
0
0
0
0
0
0
0
0
0
0
0
0
0
0
0
0
0
0
0
0
0
0
0
0
0
0
0
0
0
0
0
0
0
0
0
0
0
0
0
0
0
0
0
0
0
0
0
0
0
0
0
0
0
0
0
0
0
0
0
0
0
0
0
0
0
0
0
0
0
0
0
0
0
0
0
0
0
0
0
0
0
0
0
0
0
0
0
0
0
0
0
0
0
0
0
0
0
0
0
0
0
0
0
0
0
0
0
0
0
0
0
0
0
0
0
0
0
0
0
0
0
0
0
0
0
0
0
0
0
0
0
0
0
0
0
0
0
0
0
0
0
0
0
0
0
0
0
0
0
0
0
0
0
0
0
0
0
0
0
0
0
0
0
0
0
0
0
0
0
0
0
0
0
0
0
0
0
0
0
0
0
0
0
0
0
0
0
0
0
0
0
0
0
0
0
0
0
0
0
0
0
0
0
0
0
0
0
0
0
0
0
0
0
0
0
0
0
0
0
0
0
0
0
0
0
0
0
0
0
0
0
0
0
0
0
0
0
0
0
0
0
0
0
0
0
0
0
0
0
0
0
0
0
0
0
0
0
0
0
0
0
0
0
0
0
0
0
0
0
0
0
0
0
0
0
0
0
0
0
0
0
0
0
0
0
0
0
0
0
0
0
0
0
0
0
0
0
0
0
0
0
0
0
0
0
0
0
0
0
0
0
0
0
0
0
0
0
0
0
0
0
0
0
0
0
0
0
0
0
0
0
0
0
0
0
0
0
0
0
0
0
0
0
0
0
0
0
0
0
0
0
0
0
0
0
0
0
0
0
0
0
0
0
0
0
0
0
0
0
0
0
0
0
0
0
0
0
0
0
0
0
0
0
0
0
0
0
0
0
0
0
0
0
0
0
0
0
0
0
0
0
0
0
0
0
0
0
0
0
0
0
0
0
0
0
0
0
0
0
0
0
0
0
0
0
0
0
0
0
0
0
0
0
0
0
0
0
0
0
0
0
0
0
0
0
0
0
0
0
0
0
0
0
0
0
0
0
0
0
0
0
0
0
0
0
0
0
0
0
0
0
0
0
0
0
0
0
0
0
0
0
0
0
0
0
0
0
0
0
0
0
0
0
0
0
0
0
0
0
0
0
0
0
0
0
0
0
0
0
0
0
0
0
0
0
0
0
0
0
0
0
0
0
0
0
0
0
0
0
0
0
0
0
0
0
0
0
0
0
0
0
0
0
0
0
0
0
0
0
0
0
0
0
0
0
0
0
0
0
0
0
0
0
0
0
0
0
0
0
0
0
0
0
0
0
0
0
0
0
0
0
0
0
0
0
0
0
0
0
0
0
0
0
0
0
0
0
0
0
0
0
0
0
0
0
0
0
0
0
0
0
0
0
0
0
0
0
0
0
0
0
0
0
0
0
0
0
0
0
0
0
0
0
0
0
0
0
0
0
0
0
0
0
0
0
0
0
0
0
0
0
0
0
0
0
0
0
0
0
0
0
0
0
0
0
0
0
0
0
0
0
0
0
0
0
0
0
0
0
0
0
0
0
0
0
0
0
0
0
0
0
0
0
0
0
0
0
0
0
0
0
0
0
0
0
0
0
0
0
0
0
0
0
0
0
0
0
0
0
0
0
0
0
0
0
0
0
0
0
0
0
0
0
0
0
0
0
0
0
0
0
0
0
0
0
0
0
0
0
0
0
0
0
0
0
0
0
0
0
0
0
0
0
0
0
0
0
0
0
0
0
0
0
0
0
0
0
0
0
0
0
0
0
0
0
0
0
0
0
0
0
0
0
0
0
0
0
0
0
0
0
0
0
0
0
0
0
0
0
0
0
0
0
0
0
0
0
0
0
0
0
0
0
0
0
0
0
0
0
0
0
0
0
0
0
0
0
0
0
0
0
0
0
0
0
0
0
0
0
0
0
0
0
0
0
0
0
0
0
0
0
0
0
0
0
0
0
0
0
0
0
0
0
0
0
0
0
0
0
0
0
0
0
0
0
0
0
0
0
0
0
0
0
0
0
0
0
0
0
0
0
0
0
0
0
0
0
0
0
0
0
0
0
0
0
0
0
0
0
0
0
0
0
0
0
0
0
0
0
0
0
0
0
0
0
0
0
0
0
0
0
0
0
0
0
0
0
0
0
0
0
0
0
0
0
0
0
0
0
0
0
0
0
0
0
0
0
0
0
0
0
0
0
0
0
0
0
0
0
0
0
0
0
0
0
0
0
0
0
0
0
0
0
0
0
0
0
0
0
0
0
0
0
0
0
0
0
0
0
0
0
0
0
0
0
0
0
0
0
0
0
0
0
0
0
0
0
0
0
0
0
0
0
0
0
0
0
0
0
0
0
0
0
0
0
0
0
0
0
0
0
0
0
0
0
0
0
0
0
0
0
0
0
0
0
0
0
0
0
0
0
0
0
0
0
0
0
0
0
0
0
0
0
0
0
0
0
0
0
0
0
0
0
0
0
0
0
0
0
0
0
0
0
0
0
0
0
0
0
0
0
0
0
0
0
0
0
0
0
0
0
0
0
0
0
0
0
0
0
0
0
0
0
0
0
0
0
0
0
0
0
0
0
0
0
0
0
0
0
0
0
0
0
0
0
0
0
0
0
0
0
0
0
0
0
0
0
0
0
0
0
0
0
0
0
0
0
0
0
0
0
0
0
0
0
0
0
0
0
0
0
0
0
0
0
0
0
0
0
0
0
0
0
0
0
0
0
0
0
0
0
0
0
0
0
0
0
0
0
0
0
0
0
0
0
0
0
0
0
0
0
0
0
0
0
0
0
0
0
0
0
0
0
0
0
0
0
0
0
0
0
0
0
0
0
0
0
0
0
0
0
0
0
0
0
0
0
0
0
0
0
0
0
0
0
0
0
0
0
0
0
0
0
0
0
0
0
0
0
0
0
0
0
0
0
0
0
0
0
0
0
0
0
0
0
0
0
0
0
0
0
0
0
0
0
0
0
0
0
0
0
0
0
0
0
0
0
0
0
0
0
0
0
0
0
0
0
0
0
0
0
0
0
0
0
0
0
0
0
0
0
0
0
0
0
0
0
0
0
0
0
0
0
0
0
0
0
0
0
0
0
0
0
0
0
0
0
0
0
0
0
0
0
0
0
0
0
0
0
0
0
0
0
0
0
0
0
0
0
0
0
0
0
0
0
0
0
0
0
0
0
0
0
0
0
0
0
0
0
0
0
0
0
0
0
0
0
0
0
0
0
0
0
0
0
0
0
0
0
0
0
0
0
0
0
0
0
0
0
0
0
0
0
0
0
0
0
0
0
0
0
0
0
0
0
0
0
0
0
0
0
0
0
0
0
0
0
0
0
0
0
0
0
0
0
0
0
0
0
0
0
0
0
0
0
0
0
0
0
0
0
0
0
0
0
0
0
0
0
0
0
0
0
0
0
0
0
0
0
0
0
0
0
0
0
0
0
0
0
0
0
0
0
0
0
0
0
0
0
0
0
0
0
0
0
0
0
0
0
0
0
0
0
0
0
0
0
0
0
0
0
0
0
0
0
0
0
0
0
0
0
0
0
0
0
0
0
0
0
0
0
0
0
0
0
0
0
0
0
0
0
0
0
0
0
0
0
0
0
0
0
0
0
0
0
0
0
0
0
0
0
0
0
0
0
0
0
0
0
0
0
0
0
0
0
0
0
0
0
0
0
0
0
0
0
0
0
0
0
0
0
0
0
0
0
0
0
0
0
0
0
0
0
0
0
0
0
0
0
0
0
0
0
0
0
0
0
0
0
0
0
0
0
0
0
0
0
0
0
0
0
0
0
0
0
0
0
0
0
0
0
0
0
0
0
0
0
0
0
0
0
0
0
0
0
0
0
0
0
0
0
0
0
0
0
0
0
0
0
0
0
0
0
0
0
0
0
0
0
0
0
0
0
0
0
0
0
0
0
0
0
0
0
0
0
0
0
0
0
0
0
0
0
0
0
0
0
0
0
0
0
0
0
0
0
0
0
0
0
0
0
0
0
0
0
0
0
0
0
0
0
0
0
0
0
0
0
0
0
0
0
0
0
0
0
0
0
0
0
0
0
0
0
0
0
0
0
0
0
0
0
0
0
0
0
0
0
0
0
0
0
0
0
0
0
0
0
0
0
0
0
0
0
0
0
0
0
0
0
0
0
0
0
0
0
0
0
0
0
0
0
0
0
0
0
0
0
0
0
0
0
0
0
0
0
0
0
0
0
0
0
0
0
0
0
0
0
0
0
0
0
0
0
0
0
0
0
0
0
0
0
0
0
0
0
0
0
0
0
0
0
0
0
0
0
0
0
0
0
0
0
0
0
0
0
0
0
0
0
0
0
0
0
0
0
0
0
0
0
0
0
0
0
0
0
0
0
0
0
0
0
0
0
0
0
0
0
0
0
0
0
0
0
0
0
0
0
0
0
0
0
0
0
0
0
0
0
0
0
0
0
0
0
0
0
0
0
0
0
0
0
0
0
0
0
0
0
0
0
0
0
0
0
0
0
0
0
0
0
0
0
0
0
0
0
0
0
0
0
0
0
0
0
0
0
0
0
0
0
0
0
0
0
0
0
0
0
0
0
0
0
0
0
0
0
0
0
0
0
0
0
0
0
0
0
0
0
0
0
0
0
0
0
0
0
0
0
0
0
0
0
0
0
0
0
0
0
0
0
0
0
0
0
0
0
0
0
0
0
0
0
0
0
0
0
0
0
0
0
0
0
0
0
0
0
0
0
0
0
0
0
0
0
0
0
0
0
0
0
0
0
0
0
0
0
0
0
0
0
0
0
0
0
0
0
0
0
0
0
0
0
0
0
0
0
0
0
0
0
0
0
0
0
0
0
0
0
0
0
0
0
0
0
0
0
0
0
0
0
0
0
0
0
0
0
0
0
0
0
0
0
0
0
0
0
0
0
0
0
0
0
0
0
0
0
0
0
0
0
0
0
0
0
0
0
0
0
0
0
0
0
0
0
0
0
0
0
0
0
0
0
0
0
0
0
0
0
0
0
0
0
0
0
0
0
0
0
0
0
0
0
0
0
0
0
0
0
0
0
0
0
0
0
0
0
0
0
0
0
0
0
0
0
0
0
0
0
0
0
0
0
0
0
0
0
0
0
0
0
0
0
0
0
0
0
0
0
0
0
0
0
0
0
0
0
0
0
0
0
0
0
0
0
0
0
0
0
0
0
0
0
0
0
0
0
0
0
0
0
0
0
0
0
0
0
0
0
0
0
0
0
0
0
0
0
0
0
0
0
0
0
0
0
0
0
0
0
0
0
0
0
0
0
0
0
0
0
0
0
0
0
0
0
0
0
0
0
0
0
0
0
0
0
0
0
0
0
0
0
0
0
0
0
0
0
0
0
0
0
0
0
0
0
0
0
0
0
0
0
0
0
0
0
0
0
0
0
0
0
0
0
0
0
0
0
0
0
0
0
0
0
0
0
0
0
0
0
0
0
0
0
0
0
0
0
0
0
0
0
0
0
0
0
0
0
0
0
0
0
0
0
0
0
0
0
0
0
0
0
0
0
0
0
0
0
0
0
0
0
0
0
0
0
0
0
0
0
0
0
0
0
0
0
0
0
0
0
0
0
0
0
0
0
0
0
0
0
0
0
0
0
0
0
0
0
0
0
0
0
0
0
0
0
0
0
0
0
0
0
0
0
0
0
0
0
0
0
0
0
0
0
0
0
0
0
0
0
0
0
0
0
0
0
0
0
0
0
0
0
0
0
0
0
0
0
0
0
0
0
0
0
0
0
0
0
0
0
0
0
0
0
0
0
0
0
0
0
0
0
0
0
0
0
0
0
0
0
0
0
0
0
0
0
0
0
0
0
0
0
0
0
0
0
0
0
0
0
0
0
0
0
0
0
0
0
0
0
0
0
0
0
0
0
0
0
0
0
0
0
0
0
0
0
0
0
0
0
0
0
0
0
0
0
0
0
0
0
0
0
0
0
0
0
0
0
0
0
0
0
0
0
0
0
0
0
0
0
0
0
0
0
0
0
0
0
0
0
0
0
0
0
0
0
0
0
0
0
0
0
0
0
0
0
0
0
0
0
0
0
0
0
0
0
0
0
0
0
0
0
0
0
0
0
0
0
0
0
0
0
0
0
0
0
0
0
0
0
0
0
0
0
0
0
0
0
0
0
0
0
0
0
0
0
0
0
0
0
0
0
0
0
0
0
0
0
0
0
0
0
0
0
0
0
0
0
0
0
0
0
0
0
0
0
0
0
0
0
0
0
0
0
0
0
0
0
0
0
0
0
0
0
0
0
0
0
0
0
0
0
0
0
0
0
0
0
0
0
0
0
0
0
0
0
0
0
0
0
0
0
0
0
0
0
0
0
0
0
0
0
0
0
0
0
0
0
0
0
0
0
0
0
0
0
0
0
0
0
0
0
0
0
0
0
0
0
0
0
0
0
0
0
0
0
0
0
0
0
0
0
0
0
0
0
0
0
0
0
0
0
0
0
0
0
0
0
0
0
0
0
0
0
0
0
0
0
0
0
0
0
0
0
0
0
0
0
0
0
0
0
0
0
0
0
0
0
0
0
0
0
0
0
0
0
0
0
0
0
0
0
0
0
0
0
0
0
0
0
0
0
0
0
0
0
0
0
0
0
0
0
0
0
0
0
0
0
0
0
0
0
0
0
0
0
0
0
0
0
0
0
0
0
0
0
0
0
0
0
0
0
0
0
0
0
0
0
0
0
0
0
0
0
0
0
0
0
0
0
0
0
0
0
0
0
0
0
0
0
0
0
0
0
0
0
0
0
0
0
0
0
0
0
0
0
0
0
0
0
0
0
0
0
0
0
0
0
0
0
0
0
0
0
0
0
0
0
0
0
0
0
0
0
0
0
0
0
0
0
0
0
0
0
0
0
0
0
0
0
0
0
0
0
0
0
0
0
0
0
0
0
0
0
0
0
0
0
0
0
0
0
0
0
0
0
0
0
0
0
0
0
0
0
0
0
0
0
0
0
0
0
0
0
0
0
0
0
0
0
0
0
0
0
0
0
0
0
0
0
0
0
0
0
0
0
0
0
0
0
0
0
0
0
0
0
0
0
0
0
0
0
0
0
0
0
0
0
0
0
0
0
0
0
0
0
0
0
0
0
0
0
0
0
0
0
0
0
0
0
0
0
0
0
0
0
0
0
0
0
0
0
0
0
0
0
0
0
0
0
0
0
0
0
0
0
0
0
0
0
0
0
0
0
0
0
0
0
0
0
0
0
0
0
0
0
0
0
0
0
0
0
0
0
0
0
0
0
0
0
0
0
0
0
0
0
0
0
0
0
0
0
0
0
0
0
0
0
0
0
0
0
0
0
0
0
0
0
0
0
0
0
0
0
0
0
0
0
0
0
0
0
0
0
0
0
0
0
0
0
0
0
0
0
0
0
0
0
0
0
0
0
0
0
0
0
0
0
0
0
0
0
0
0
0
0
0
0
0
0
0
0
0
0
0
0
0
0
0
0
0
0
0
0
0
0
0
0
0
0
0
0
0
0
0
0
0
0
0
0
0
0
0
0
0
0
0
0
0
0
0
0
0
0
0
0
0
0
0
0
0
0
0
0
0
0
0
0
0
0
0
0
0
0
0
0
0
0
0
0
0
0
0
0
0
0
0
0
0
0
0
0
0
0
0
0
0
0
0
0
0
0
0
0
0
0
0
0
0
0
0
0
0
0
0
0
0
0
0
0
0
0
0
0
0
0
0
0
0
0
0
0
0
0
0
0
0
0
0
0
0
0
0
0
0
0
0
0
0
0
0
0
0
0
0
0
0
0
0
0
0
0
0
0
0
0
0
0
0
0
0
0
0
0
0
0
0
0
0
0
0
0
0
0
0
0
0
0
0
0
0
0
0
0
0
0
0
0
0
0
0
0
0
0
0
0
0
0
0
0
0
0
0
0
0
0
0
0
0
0
0
0
0
0
0
0
0
0
0
0
0
0
0
0
0
0
0
0
0
0
0
0
0
0
0
0
0
0
0
0
0
0
0
0
0
0
0
0
0
0
0
0
0
0
0
0
0
0
0
0
0
0
0
0
0
0
0
0
0
0
0
0
0
0
0
0
0
0
0
0
0
0
0
0
0
0
0
0
0
0
0
0
0
0
0
0
0
0
0
0
0
0
0
0
0
0
0
0
0
0
0
0
0
0
0
0
0
0
0
0
0
0
0
0
0
0
0
0
0
0
0
0
0
0
0
0
0
0
0
0
0
0
0
0
0
0
0
0
0
0
0
0
0
0
0
0
0
0
0
0
0
0
0
0
0
0
0
0
0
0
0
0
0
0
0
0
0
0
0
0
0
0
0
0
0
0
0
0
0
0
0
0
0
0
0
0
0
0
0
0
0
0
0
0
0
0
0
0
0
0
0
0
0
0
0
0
0
0
0
0
0
0
0
0
0
0
0
0
0
0
0
0
0
0
0
0
0
0
0
0
0
0
0
0
0
0
0
0
0
0
0
0
0
0
0
0
0
0
0
0
0
0
0
0
0
0
0
0
0
0
0
0
0
0
0
0
0
0
0
0
0
0
0
0
0
0
0
0
0
0
0
0
0
0
0
0
0
0
0
0
0
0
0
0
0
0
0
0
0
0
0
0
0
0
0
0
0
0
0
0
0
0
0
0
0
0
0
0
0
0
0
0
0
0
0
0
0
0
0
0
0
0
0
0
0
0
0
0
0
0
0
0
0
0
0
0
0
0
0
0
0
0
0
0
0
0
0
0
0
0
0
0
0
0
0
0
0
0
0
0
0
0
0
0
0
0
0
0
0
0
0
0
0
0
0
0
0
0
0
0
0
0
0
0
0
0
0
0
0
0
0
0
0
0
0
0
0
0
0
0
0
0
0
0
0
0
0
0
0
0
0
0
0
0
0
0
0
0
0
0
0
0
0
0
0
0
0
0
0
0
0
0
0
0
0
0
0
0
0
0
0
0
0
0
0
0
0
0
0
0
0
0
0
0
0
0
0
0
0
0
0
0
0
0
0
0
0
0
0
0
0
0
0
0
0
0
0
0
0
0
0
0
0
0
0
0
0
0
0
0
0
0
0
0
0
0
0
0
0
0
0
0
0
0
0
0
0
0
0
0
0
0
0
0
0
0
0
0
0
0
0
0
0
0
0
0
0
0
0
0
0
0
0
0
0
0
0
0
0
0
0
0
0
0
0
0
0
0
0
0
0
0
0
0
0
0
0
0
0
0
0
0
0
0
0
0
0
0
0
0
0
0
0
0
0
0
0
0
0
0
0
0
0
0
0
0
0
0
0
0
0
0
0
0
0
0
0
0
0
0
0
0
0
0
0
0
0
0
0
0
0
0
0
0
0
0
0
0
0
0
0
0
0
0
0
0
0
0
0
0
0
0
0
0
0
0
0
0
0
0
0
0
0
0
0
0
0
0
0
0
0
0
0
0
0
0
0
0
0
0
0
0
0
0
0
0
0
0
0
0
0
0
0
0
0
0
0
0
0
0
0
0
0
0
0
0
0
0
0
0
0
0
0
0
0
0
0
0
0
0
0
0
0
0
0
0
0
0
0
0
0
0
0
0
0
0
0
0
0
0
0
0
0
0
0
0
0
0
0
0
0
0
0
0
0
0
0
0
0
0
0
0
0
0
0
0
0
0
0
0
0
0
0
0
0
0
0
0
0
0
0
0
0
0
0
0
0
0
0
0
0
0
0
0
0
0
0
0
0
0
0
0
0
0
0
0
0
0
0
0
0
0
0
0
0
0
0
0
0
0
0
0
0
0
0
0
0
0
0
0
0
0
0
0
0
0
0
0
0
0
0
0
0
0
0
0
0
0
0
0
0
0
0
0
0
0
0
0
0
0
0
0
0
0
0
0
0
0
0
0
0
0
0
0
0
0
0
0
0
0
0
0
0
0
0
0
0
0
0
0
0
0
0
0
0
0
0
0
0
0
0
0
0
0
0
0
0
0
0
0
0
0
0
0
0
0
0
0
0
0
0
0
0
0
0
0
0
0
0
0
0
0
0
0
0
0
0
0
0
0
0
0
0
0
0
0
0
0
0
0
0
0
0
0
0
0
0
0
0
0
0
0
0
0
0
0
0
0
0
0
0
0
0
0
0
0
0
0
0
0
0
0
0
0
0
0
0
0
0
0
0
0
0
0
0
0
0
0
0
0
0
0
0
0
0
0
0
0
0
0
0
0
0
0
0
0
0
0
0
0
0
0
0
0
0
0
0
0
0
0
0
0
0
0
0
0
0
0
0
0
0
0
0
0
0
0
0
0
0
0
0
0
0
0
0
0
0
0
0
0
0
0
0
0
0
0
0
0
0
0
0
0
0
0
0
0
0
0
0
0
0
0
0
0
0
0
0
0
0
0
0
0
0
0
0
0
0
0
0
0
0
0
0
0
0
0
0
0
0
0
0
0
0
0
0
0
0
0
0
0
0
0
0
0
0
0
0
0
0
0
0
0
0
0
0
0
0
0
0
0
0
0
0
0
0
0
0
0
0
0
0
0
0
0
0
0
0
0
0
0
0
0
0
0
0
0
0
0
0
0
0
0
0
0
0
0
0
0
0
0
0
0
0
0
0
0
0
0
0
0
0
0
0
0
0
0
0
0
0
0
0
0
0
0
0
0
0
0
0
0
0
0
0
0
0
0
0
0
0
0
0
0
0
0
0
0
0
0
0
0
0
0
0
0
0
0
0
0
0
0
0
0
0
0
0
0
0
0
0
0
0
0
0
0
0
0
0
0
0
0
0
0
0
0
0
0
0
0
0
0
0
0
0
0
0
0
0
0
0
0
0
0
0
0
0
0
0
0
0
0
0
0
0
0
0
0
0
0
0
0
0
0
0
0
0
0
0
0
0
0
0
0
0
0
0
0
0
0
0
0
0
0
0
0
0
0
0
0
0
0
0
0
0
0
0
0
0
0
0
0
0
0
0
0
0
0
0
0
0
0
0
0
0
0
0
0
0
0
0
0
0
0
0
0
0
0
0
0
0
0
0
0
0
0
0
0
0
0
0
0
0
0
0
0
0
0
0
0
0
0
0
0
0
0
0
0
0
0
0
0
0
0
0
0
0
0
0
0
0
0
0
0
0
0
0
0
0
0
0
0
0
0
0
0
0
0
0
0
0
0
0
0
0
0
0
0
0
0
0
0
0
0
0
0
0
0
0
0
0
0
0
0
0
0
0
0
0
0
0
0
0
0
0
0
0
0
0
0
0
0
0
0
0
0
0
0
0
0
0
0
0
0
0
0
0
0
0
0
0
0
0
0
0
0
0
0
0
0
0
0
0
0
0
0
0
0
0
0
0
0
0
0
0
0
0
0
0
0
0
0
0
0
0
0
0
0
0
0
0
0
0
0
0
0
0
0
0
0
0
0
0
0
0
0
0
0
0
0
0
0
0
0
0
0
0
0
0
0
0
0
0
0
0
0
0
0
0
0
0
0
0
0
0
0
0
0
0
0
0
0
0
0
0
0
0
0
0
0
0
0
0
0
0
0
0
0
0
0
0
0
0
0
0
0
0
0
0
0
0
0
0
0
0
0
0
0
0
0
0
0
0
0
0
0
0
0
0
0
0
0
0
0
0
0
0
0
0
0
0
0
0
0
0
0
0
0
0
0
0
0
0
0
0
0
0
0
0
0
0
0
0
0
0
0
0
0
0
0
0
0
0
0
0
0
0
0
0
0
0
0
0
0
0
0
0
0
0
0
0
0
0
0
0
0
0
0
0
0
0
0
0
0
0
0
0
0
0
0
0
0
0
0
0
0
0
0
0
0
0
0
0
0
0
0
0
0
0
0
0
0
0
0
0
0
0
0
0
0
0
0
0
0
0
0
0
0
0
0
0
0
0
0
0
0
0
0
0
0
0
0
0
0
0
0
0
0
0
0
0
0
0
0
0
0
0
0
0
0
0
0
0
0
0
0
0
0
0
0
0
0
0
0
0
0
0
0
0
0
0
0
0
0
0
0
0
0
0
0
0
0
0
0
0
0
0
0
0
0
0
0
0
0
0
0
0
0
0
0
0
0
0
0
0
0
0
0
0
0
0
0
0
0
0
0
0
0
0
0
0
0
0
0
0
0
0
0
0
0
0
0
0
0
0
0
0
0
0
0
0
0
0
0
0
0
0
0
0
0
0
0
0
0
0
0
0
0
0
0
0
0
0
0
0
0
0
0
0
0
0
0
0
0
0
0
0
0
0
0
0
0
0
0
0
0
0
0
0
0
0
0
0
0
0
0
0
0
0
0
0
0
0
0
0
0
0
0
0
0
0
0
0
0
0
0
0
0
0
0
0
0
0
0
0
0
0
0
0
0
0
0
0
0
0
0
0
0
0
0
0
0
0
0
0
0
0
0
0
0
0
0
0
0
0
0
0
0
0
0
0
0
0
0
0
0
0
0
0
0
0
0
0
0
0
0
0
0
0
0
0
0
0
0
0
0
0
0
0
0
0
0
0
0
0
0
0
0
0
0
0
0
0
0
0
0
0
0
0
0
0
0
0
0
0
0
0
0
0
0
0
0
0
0
0
0
0
0
0
0
0
0
0
0
0
0
0
0
0
0
0
0
0
0
0
0
0
0
0
0
0
0
0
0
0
0
0
0
0
0
0
0
0
0
0
0
0
0
0
0
0
0
0
0
0
0
0
0
0
0
0
0
0
0
0
0
0
0
0
0
0
0
0
0
0
0
0
0
0
0
0
0
0
0
0
0
0
0
0
0
0
0
0
0
0
0
0
0
0
0
0
0
0
0
0
0
0
0
0
0
0
0
0
0
0
0
0
0
0
0
0
0
0
0
0
0
0
0
0
0
0
0
0
0
0
0
0
0
0
0
0
0
0
0
0
0
0
0
0
0
0
0
0
0
0
0
0
0
0
0
0
0
0
0
0
0
0
0
0
0
0
0
0
0
0
0
0
0
0
0
0
0
0
0
0
0
0
0
0
0
0
0
0
0
0
0
0
0
0
0
0
0
0
0
0
0
0
0
0
0
0
0
0
0
0
0
0
0
0
0
0
0
0
0
0
0
0
0
0
0
0
0
0
0
0
0
0
0
0
0
0
0
0
0
0
0
0
0
0
0
0
0
0
0
0
0
0
0
0
0
0
0
0
0
0
0
0
0
0
0
0
0
0
0
0
0
0
0
0
0
0
0
0
0
0
0
0
0
0
0
0
0
0
0
0
0
0
0
0
0
0
0
0
0
0
0
0
0
0
0
0
0
0
0
0
0
0
0
0
0
0
0
0
0
0
0
0
0
0
0
0
0
0
0
0
0
0
0
0
0
0
0
0
0
0
0
0
0
0
0
0
0
0
0
0
0
0
0
0
0
0
0
0
0
0
0
0
0
0
0
0
0
0
0
0
0
0
0
0
0
0
0
0
0
0
0
0
0
0
0
0
0
0
0
0
0
0
0
0
0
0
0
0
0
0
0
0
0
0
0
0
0
0
0
0
0
0
0
0
0
0
0
0
0
0
0
0
0
0
0
0
0
0
0
0
0
0
0
0
0
0
0
0
0
0
0
0
0
0
0
0
0
0
0
0
0
0
0
0
0
0
0
0
0
0
0
0
0
0
0
0
0
0
0
0
0
0
0
0
0
0
0
0
0
0
0
0
0
0
0
0
0
0
0
0
0
0
0
0
0
0
0
0
0
0
0
0
0
0
0
0
0
0
0
0
0
0
0
0
0
0
0
0
0
0
0
0
0
0
0
0
0
0
0
0
0
0
0
0
0
0
0
0
0
0
0
0
0
0
0
0
0
0
0
0
0
0
0
0
0
0
0
0
0
0
0
0
0
0
0
0
0
0
0
0
0
0
0
0
0
0
0
0
0
0
0
0
0
0
0
0
0
0
0
0
0
0
0
0
0
0
0
0
0
0
0
0
0
0
0
0
0
0
0
0
0
0
0
0
0
0
0
0
0
0
0
0
0
0
0
0
0
0
0
0
0
0
0
0
0
0
0
0
0
0
0
0
0
0
0
0
0
0
0
0
0
0
0
0
0
0
0
0
0
0
0
0
0
0
0
0
0
0
0
0
0
0
0
0
0
0
0
0
0
0
0
0
0
0
0
0
0
0
0
0
0
0
0
0
0
0
0
0
0
0
0
0
0
0
0
0
0
0
0
0
0
0
0
0
0
0
0
0
0
0
0
0
0
0
0
0
0
0
0
0
0
0
0
0
0
0
0
0
0
0
0
0
0
0
0
0
0
0
0
0
0
0
0
0
0
0
0
0
0
0
0
0
0
0
0
0
0
0
0
0
0
0
0
0
0
0
0
0
0
0
0
0
0
0
0
0
0
0
0
0
0
0
0
0
0
0
0
0
0
0
0
0
0
0
0
0
0
0
0
0
0
0
0
0
0
0
0
0
0
0
0
0
0
0
0
0
0
0
0
0
0
0
0
0
0
0
0
0
0
0
0
0
0
0
0
0
0
0
0
0
0
0
0
0
0
0
0
0
0
0
0
0
0
0
0
0
0
0
0
0
0
0
0
0
0
0
0
0
0
0
0
0
0
0
0
0
0
0
0
0
0
0
0
0
0
0
0
0
0
0
0
0
0
0
0
0
0
0
0
0
0
0
0
0
0
0
0
0
0
0
0
0
0
0
0
0
0
0
0
0
0
0
0
0
0
0
0
0
0
0
0
0
0
0
0
0
0
0
0
0
0
0
0
0
0
0
0
0
0
0
0
0
0
0
0
0
0
0
0
0
0
0
0
0
0
0
0
0
0
0
0
0
0
0
0
0
0
0
0
0
0
0
0
0
0
0
0
0
0
0
0
0
0
0
0
0
0
0
0
0
0
0
0
0
0
0
0
0
0
0
0
0
0
0
0
0
0
0
0
0
0
0
0
0
0
0
0
0
0
0
0
0
0
0
0
0
0
0
0
0
0
0
0
0
0
0
0
0
0
0
0
0
0
0
0
0
0
0
0
0
0
0
0
0
0
0
0
0
0
0
0
0
0
0
0
0
0
0
0
0
0
0
0
0
0
0
0
0
0
0
0
0
0
0
0
0
0
0
0
0
0
0
0
0
0
0
0
0
0
0
0
0
0
0
0
0
0
0
0
0
0
0
0
0
0
0
0
0
0
0
0
0
0
0
0
0
0
0
0
0
0
0
0
0
0
0
0
0
0
0
0
0
0
0
0
0
0
0
0
0
0
0
0
0
0
0
0
0
0
0
0
0
0
0
0
0
0
0
0
0
0
0
0
0
0
0
0
0
0
0
0
0
0
0
0
0
0
0
0
0
0
0
0
0
0
0
0
0
0
0
0
0
0
0
0
0
0
0
0
0
0
0
0
0
0
0
0
0
0
0
0
0
0
0
0
0
0
0
0
0
0
0
0
0
0
0
0
0
0
0
0
0
0
0
0
0
0
0
0
0
0
0
0
0
0
0
0
0
0
0
0
0
0
0
0
0
0
0
0
0
0
0
0
0
0
0
0
0
0
0
0
0
0
0
0
0
0
0
0
0
0
0
0
0
0
0
0
0
0
0
0
0
0
0
0
0
0
0
0
0
0
0
0
0
0
0
0
0
0
0
0
0
0
0
0
0
0
0
0
0
0
0
0
0
0
0
0
0
0
0
0
0
0
0
0
0
0
0
0
0
0
0
0
0
0
0
0
0
0
0
0
0
0
0
0
0
0
0
0
0
0
0
0
0
0
0
0
0
0
0
0
0
0
0
0
0
0
0
0
0
0
0
0
0
0
0
0
0
0
0
0
0
0
0
0
0
0
0
0
0
0
0
0
0
0
0
0
0
0
0
0
0
0
0
0
0
0
0
0
0
0
0
0
0
0
0
0
0
0
0
0
0
0
0
0
0
0
0
0
0
0
0
0
0
0
0
0
0
0
0
0
0
0
0
0
0
0
0
0
0
0
0
0
0
0
0
0
0
0
0
0
0
0
0
0
0
0
0
0
0
0
0
0
0
0
0
0
0
0
0
0
0
0
0
0
0
0
0
0
0
0
0
0
0
0
0
0
0
0
0
0
0
0
0
0
0
0
0
0
0
0
0
0
0
0
0
0
0
0
0
0
0
0
0
0
0
0
0
0
0
0
0
0
0
0
0
0
0
0
0
0
0
0
0
0
0
0
0
0
0
0
0
0
0
0
0
0
0
0
0
0
0
0
0
0
0
0
0
0
0
0
0
0
0
0
0
0
0
0
0
0
0
0
0
0
0
0
0
0
0
0
0
0
0
0
0
0
0
0
0
0
0
0
0
0
0
0
0
0
0
0
0
0
0
0
0
0
0
0
0
0
0
0
0
0
0
0
0
0
0
0
0
0
0
0
0
0
0
0
0
0
0
0
0
0
0
0
0
0
0
0
0
0
0
0
0
0
0
0
0
0
0
0
0
0
0
0
0
0
0
0
0
0
0
0
0
0
0
0
0
0
0
0
0
0
0
0
0
0
0
0
0
0
0
0
0
0
0
0
0
0
0
0
0
0
0
0
0
0
0
0
0
0
0
0
0
0
0
0
0
0
0
0
0
0
0
0
0
0
0
0
0
0
0
0
0
0
0
0
0
0
0
0
0
0
0
0
0
0
0
0
0
0
0
0
0
0
0
0
0
0
0
0
0
0
0
0
0
0
0
0
0
0
0
0
0
0
0
0
0
0
0
0
0
0
0
0
0
0
0
0
0
0
0
0
0
0
0
0
0
0
0
0
0
0
0
0
0
0
0
0
0
0
0
0
0
0
0
0
0
0
0
0
0
0
0
0
0
0
0
0
0
0
0
0
0
0
0
0
0
0
0
0
0
0
0
0
0
0
0
0
0
0
0
0
0
0
0
0
0
0
0
0
0
0
0
0
0
0
0
0
0
0
0
0
0
0
0
0
0
0
0
0
0
0
0
0
0
0
0
0
0
0
0
0
0
0
0
0
0
0
0
0
0
0
0
0
0
0
0
0
0
0
0
0
0
0
0
0
0
0
0
0
0
0
0
0
0
0
0
0
0
0
0
0
0
0
0
0
0
0
0
0
0
0
0
0
0
0
0
0
0
0
0
0
0
0
0
0
0
0
0
0
0
0
0
0
0
0
0
0
0
0
0
0
0
0
0
0
0
0
0
0
0
0
0
0
0
0
0
0
0
0
0
0
0
0
0
0
0
0
0
0
0
0
0
0
0
0
0
0
0
0
0
0
0
0
0
0
0
0
0
0
0
0
0
0
0
0
0
0
0
0
0
0
0
0
0
0
0
0
0
0
0
0
0
0
0
0
0
0
0
0
0
0
0
0
0
0
0
0
0
0
0
0
0
0
0
0
0
0
0
0
0
0
0
0
0
0
0
0
0
0
0
0
0
0
0
0
0
0
0
0
0
0
0
0
0
0
0
0
0
0
0
0
0
0
0
0
0
0
0
0
0
0
0
0
0
0
0
0
0
0
0
0
0
0
0
0
0
0
0
0
0
0
0
0
0
0
0
0
0
0
0
0
0
0
0
0
0
0
0
0
0
0
0
0
0
0
0
0
0
0
0
0
0
0
0
0
0
0
0
0
0
0
0
0
0
0
0
0
0
0
0
0
0
0
0
0
0
0
0
0
0
0
0
0
0
0
0
0
0
0
0
0
0
0
0
0
0
0
0
0
0
0
0
0
0
0
0
0
0
0
0
0
0
0
0
0
0
0
0
0
0
0
0
0
0
0
0
0
0
0
0
0
0
0
0
0
0
0
0
0
0
0
0
0
0
0
0
0
0
0
0
0
0
0
0
0
0
0
0
0
0
0
0
0
0
0
0
0
0
0
0
0
0
0
0
0
0
0
0
0
0
0
0
0
0
0
0
0
0
0
0
0
0
0
0
0
0
0
0
0
0
0
0
0
0
0
0
0
0
0
0
0
0
0
0
0
0
0
0
0
0
0
0
0
0
0
0
0
0
0
0
0
0
0
0
0
0
0
0
0
0
0
0
0
0
0
0
0
0
0
0
0
0
0
0
0
0
0
0
0
0
0
0
0
0
0
0
0
0
0
0
0
0
0
0
0
0
0
0
0
0
0
0
0
0
0
0
0
0
0
0
0
0
0
0
0
0
0
0
0
0
0
0
0
0
0
0
0
0
0
0
0
0
0
0
0
0
0
0
0
0
0
0
0
0
0
0
0
0
0
0
0
0
0
0
0
0
0
0
0
0
0
0
0
0
0
0
0
0
0
0
0
0
0
0
0
0
0
0
0
0
0
0
0
0
0
0
0
0
0
0
0
0
0
0
0
0
0
0
0
0
0
0
0
0
0
0
0
0
0
0
0
0
0
0
0
0
0
0
0
0
0
0
0
0
0
0
0
0
0
0
0
0
0
0
0
0
0
0
0
0
0
0
0
0
0
0
0
0
0
0
0
0
0
0
0
0
0
0
0
0
0
0
0
0
0
0
0
0
0
0
0
0
0
0
0
0
0
0
0
0
0
0
0
0
0
0
0
0
0
0
0
0
0
0
0
0
0
0
0
0
0
0
0
0
0
0
0
0
0
0
0
0
0
0
0
0
0
0
0
0
0
0
0
0
0
0
0
0
0
0
0
0
0
0
0
0
0
0
0
0
0
0
0
0
0
0
0
0
0
0
0
0
0
0
0
0
0
0
0
0
0
0
0
0
0
0
0
0
0
0
0
0
0
0
0
0
0
0
0
0
0
0
0
0
0
0
0
0
0
0
0
0
0
0
0
0
0
0
0
0
0
0
0
0
0
0
0
0
0
0
0
0
0
0
0
0
0
0
0
0
0
0
0
0
0
0
0
0
0
0
0
0
0
0
0
0
0
0
0
0
0
0
0
0
0
0
0
0
0
0
0
0
0
0
0
0
0
0
0
0
0
0
0
0
0
0
0
0
0
0
0
0
0
0
0
0
0
0
0
0
0
0
0
0
0
0
0
0
0
0
0
0
0
0
0
0
0
0
0
0
0
0
0
0
0
0
0
0
0
0
0
0
0
0
0
0
0
0
0
0
0
0
0
0
0
0
0
0
0
0
0
0
0
0
0
0
0
0
0
0
0
0
0
0
0
0
0
0
0
0
0
0
0
0
0
0
0
0
0
0
0
0
0
0
0
0
0
0
0
0
0
0
0
0
0
0
0
0
0
0
0
0
0
0
0
0
0
0
0
0
0
0
0
0
0
0
0
0
0
0
0
0
0
0
0
0
0
0
0
0
0
0
0
0
0
0
0
0
0
0
0
0
0
0
0
0
0
0
0
0
0
0
0
0
0
0
0
0
0
0
0
0
0
0
0
0
0
0
0
0
0
0
0
0
0
0
0
0
0
0
0
0
0
0
0
0
0
0
0
0
0
0
0
0
0
0
0
0
0
0
0
0
0
0
0
0
0
0
0
0
0
0
0
0
0
0
0
0
0
0
0
0
0
0
0
0
0
0
0
0
0
0
0
0
0
0
0
0
0
0
0
0
0
0
0
0
0
0
0
0
0
0
0
0
0
0
0
0
0
0
0
0
0
0
0
0
0
0
0
0
0
0
0
0
0
0
0
0
0
0
0
0
0
0
0
0
0
0
0
0
0
0
0
0
0
0
0
0
0
0
0
0
0
0
0
0
0
0
0
0
0
0
0
0
0
0
0
0
0
0
0
0
0
0
0
0
0
0
0
0
0
0
0
0
0
0
0
0
0
0
0
0
0
0
0
0
0
0
0
0
0
0
0
0
0
0
0
0
0
0
0
0
0
0
0
0
0
0
0
0
0
0
0
0
0
0
0
0
0
0
0
0
0
0
0
0
0
0
0
0
0
0
0
0
0
0
0
0
0
0
0
0
0
0
0
0
0
0
0
0
0
0
0
0
0
0
0
0
0
0
0
0
0
0
0
0
0
0
0
0
0
0
0
0
0
0
0
0
0
0
0
0
0
0
0
0
0
0
0
0
0
0
0
0
0
0
0
0
0
0
0
0
0
0
0
0
0
0
0
0
0
0
0
0
0
0
0
0
0
0
0
0
0
0
0
0
0
0
0
0
0
0
0
0
0
0
0
0
0
0
0
0
0
0
0
0
0
0
0
0
0
0
0
0
0
0
0
0
0
0
0
0
0
0
0
0
0
0
0
0
0
0
0
0
0
0
0
0
0
0
0
0
0
0
0
0
0
0
0
0
0
0
0
0
0
0
0
0
0
0
0
0
0
0
0
0
0
0
0
0
0
0
0
0
0
0
0
0
0
0
0
0
0
0
0
0
0
0
0
0
0
0
0
0
0
0
0
0
0
0
0
0
0
0
0
0
0
0
0
0
0
0
0
0
0
0
0
0
0
0
0
0
0
0
0
0
0
0
0
0
0
0
0
0
0
0
0
0
0
0
0
0
0
0
0
0
0
0
0
0
0
0
0
0
0
0
0
0
0
0
0
0
0
0
0
0
0
0
0
0
0
0
0
0
0
0
0
0
0
0
0
0
0
0
0
0
0
0
0
0
0
0
0
0
0
0
0
0
0
0
0
0
0
0
0
0
0
0
0
0
0
0
0
0
0
0
0
0
0
0
0
0
0
0
0
0
0
0
0
0
0
0
0
0
0
0
0
0
0
0
0
0
0
0
0
0
0
0
0
0
0
0
0
0
0
0
0
0
0
0
0
0
0
0
0
0
0
0
0
0
0
0
0
0
0
0
0
0
0
0
0
0
0
0
0
0
0
0
0
0
0
0
0
0
0
0
0
0
0
0
0
0
0
0
0
0
0
0
0
0
0
0
0
0
0
0
0
0
0
0
0
0
0
0
0
0
0
0
0
0
0
0
0
0
0
0
0
0
0
0
0
0
0
0
0
0
0
0
0
0
0
0
0
0
0
0
0
0
0
0
0
0
0
0
0
0
0
0
0
0
0
0
0
0
0
0
0
0
0
0
0
0
0
0
0
0
0
0
0
0
0
0
0
0
0
0
0
0
0
0
0
0
0
0
0
0
0
0
0
0
0
0
0
0
0
0
0
0
0
0
0
0
0
0
0
0
0
0
0
0
0
0
0
0
0
0
0
0
0
0
0
0
0
0
0
0
0
0
0
0
0
0
0
0
0
0
0
0
0
0
0
0
0
0
0
0
0
0
0
0
0
0
0
0
0
0
0
0
0
0
0
0
0
0
0
0
0
0
0
0
0
0
0
0
0
0
0
0
0
0
0
0
0
0
0
0
0
0
0
0
0
0
0
0
0
0
0
0
0
0
0
0
0
0
0
0
0
0
0
0
0
0
0
0
0
0
0
0
0
0
0
0
0
0
0
0
0
0
0
0
0
0
0
0
0
0
0
0
0
0
0
0
0
0
0
0
0
0
0
0
0
0
0
0
0
0
0
0
0
0
0
0
0
0
0
0
0
0
0
0
0
0
0
0
0
0
0
0
0
0
0
0
0
0
0
0
0
0
0
0
0
0
0
0
0
0
0
0
0
0
0
0
0
0
0
0
0
0
0
0
0
0
0
0
0
0
0
0
0
0
0
0
0
0
0
0
0
0
0
0
0
0
0
0
0
0
0
0
0
0
0
0
0
0
0
0
0
0
0
0
0
0
0
0
0
0
0
0
0
0
0
0
0
0
0
0
0
0
0
0
0
0
0
0
0
0
0
0
0
0
0
0
0
0
0
0
0
0
0
0
0
0
0
0
0
0
0
0
0
0
0
0
0
0
0
0
0
0
0
0
0
0
0
0
0
0
0
0
0
0
0
0
0
0
0
0
0
0
0
0
0
0
0
0
0
0
0
0
0
0
0
0
0
0
0
0
0
0
0
0
0
0
0
0
0
0
0
0
0
0
0
0
0
0
0
0
0
0
0
0
0
0
0
0
0
0
0
0
0
0
0
0
0
0
0
0
0
0
0
0
0
0
0
0
0
0
0
0
0
0
0
0
0
0
0
0
0
0
0
0
0
0
0
0
0
0
0
0
0
0
0
0
0
0
0
0
0
0
0
0
0
0
0
0
0
0
0
0
0
0
0
0
0
0
0
0
0
0
0
0
0
0
0
0
0
0
0
0
0
0
0
0
0
0
0
0
0
0
0
0
0
0
0
0
0
0
0
0
0
0
0
0
0
0
0
0
0
0
0
0
0
0
0
0
0
0
0
0
0
0
0
0
0
0
0
0
0
0
0
0
0
0
0
0
0
0
0
0
0
0
0
0
0
0
0
0
0
0
0
0
0
0
0
0
0
0
0
0
0
0
0
0
0
0
0
0
0
0
0
0
0
0
0
0
0
0
0
0
0
0
0
0
0
0
0
0
0
0
0
0
0
0
0
0
0
0
0
0
0
0
0
0
0
0
0
0
0
0
0
0
0
0
0
0
0
0
0
0
0
0
0
0
0
0
0
0
0
0
0
0
0
0
0
0
0
0
0
0
0
0
0
0
0
0
0
0
0
0
0
0
0
0
0
0
0
0
0
0
0
0
0
0
0
0
0
0
0
0
0
0
0
0
0
0
0
0
0
0
0
0
0
0
0
0
0
0
0
0
0
0
0
0
0
0
0
0
0
0
0
0
0
0
0
0
0
0
0
0
0
0
0
0
0
0
0
0
0
0
0
0
0
0
0
0
0
0
0
0
0
0
0
0
0
0
0
0
0
0
0
0
0
0
0
0
0
0
0
0
0
0
0
0
0
0
0
0
0
0
0
0
0
0
0
0
0
0
0
0
0
0
0
0
0
0
0
0
0
0
0
0
0
0
0
0
0
0
0
0
0
0
0
0
0
0
0
0
0
0
0
0
0
0
0
0
0
0
0
0
0
0
0
0
0
0
0
0
0
0
0
0
0
0
0
0
0
0
0
0
0
0
0
0
0
0
0
0
0
0
0
0
0
0
0
0
0
0
0
0
0
0
0
0
0
0
0
0
0
0
0
0
0
0
0
0
0
0
0
0
0
0
0
0
0
0
0
0
0
0
0
0
0
0
0
0
0
0
0
0
0
0
0
0
0
0
0
0
0
0
0
0
0
0
0
0
0
0
0
0
0
0
0
0
0
0
0
0
0
0
0
0
0
0
0
0
0
0
0
0
0
0
0
0
0
0
0
0
0
0
0
0
0
0
0
0
0
0
0
0
0
0
0
0
0
0
0
0
0
0
0
0
0
0
0
0
0
0
0
0
0
0
0
0
0
0
0
0
0
0
0
0
0
0
0
0
0
0
0
0
0
0
0
0
0
0
0
0
0
0
0
0
0
0
0
0
0
0
0
0
0
0
0
0
0
0
0
0
0
0
0
0
0
0
0
0
0
0
0
0
0
0
0
0
0
0
0
0
0
0
0
0
0
0
0
0
0
0
0
0
0
0
0
0
0
0
0
0
0
0
0
0
0
0
0
0
0
0
0
0
0
0
0
0
0
0
0
0
0
0
0
0
0
0
0
0
0
0
0
0
0
0
0
0
0
0
0
0
0
0
0
0
0
0
0
0
0
0
0
0
0
0
0
0
0
0
0
0
0
0
0
0
0
0
0
0
0
0
0
0
0
0
0
0
0
0
0
0
0
0
0
0
0
0
0
0
0
0
0
0
0
0
0
0
0
0
0
0
0
0
0
0
0
0
0
0
0
0
0
0
0
0
0
0
0
0
0
0
0
0
0
0
0
0
0
0
0
0
0
0
0
0
0
0
0
0
0
0
0
0
0
0
0
0
0
0
0
0
0
0
0
0
0
0
0
0
0
0
0
0
0
0
0
0
0
0
0
0
0
0
0
0
0
0
0
0
0
0
0
0
0
0
0
0
0
0
0
0
0
0
0
0
0
0
0
0
0
0
0
0
0
0
0
0
0
0
0
0
0
0
0
0
0
0
0
0
0
0
0
0
0
0
0
0
0
0
0
0
0
0
0
0
0
0
0
0
0
0
0
0
0
0
0
0
0
0
0
0
0
0
0
0
0
0
0
0
0
0
0
0
0
0
0
0
0
0
0
0
0
0
0
0
0
0
0
0
0
0
0
0
0
0
0
0
0
0
0
0
0
0
0
0
0
0
0
0
0
0
0
0
0
0
0
0
0
0
0
0
0
0
0
0
0
0
0
0
0
0
0
0
0
0
0
0
0
0
0
0
0
-96
-97
-97
-98
-98
-98
-98
-98
-97
-97
-97
-97
-97
-98
-98
-98
-98
-99
-99
-99
-99
-99
-99
-99
-99
-99
-99
-99
-98
-98
-98
-98
-98
-98
-98
-98
-98
-99
-99
-99
-99
-99
-99
-99
-99
-100
-100
-100
-100
-101
-101
-101
-101
-101
-101
-101
-101
-102
-102
-102
-102
-102
-102
-102
-102
-103
-103
-103
-103
-103
-103
-103
-103
-103
-103
-103
-102
-102
-102
-102
-102
-103
-103
-103
-103
-104
-104
-105
-105
-106
-106
-106
-106
-106
-106
-106
-106
-106
-106
-106
-105
-105
-105
-105
-104
-104
-104
-104
-103
-103
-103
-103
-102
-102
-102
-102
-102
-102
-102
-102
-101
-102
-102
-103
-103
-104
-104
-105
-105
-106
-106
-106
-106
-106
-106
-106
-106
-106
-106
-106
-106
-106
-106
-105
-104
-102
-100
-98
-96
-94
-92
-91
-89
-89
-89
-90
-91
-93
-95
-97
-98
-100
-101
-102
-103
-104
-105
-106
-107
-108
-108
-109
-109
-111
-112
-112
-112
-112
-111
-112
-112
-113
-113
-112
-111
-111
-110
-110
-110
-110
-109
-109
-108
-109
-109
-110
-110
-111
-111
-111
-110
-109
-108
-108
-107
-108
-108
-108
-107
-107
-106
-106
-105
-105
-105
-105
-105
-105
-105
-104
-103
-103
-103
-102
-101
-98
-94
-90
-86
-84
-82
-81
-79
-80
-80
-82
-83
-85
-87
-99
-110
-136
-161
-191
-220
-238
-256
-251
-246
-230
-214
-204
-193
-188
-182
-180
-178
-178
-178
-172
-166
-155
-143
-134
-124
-118
-111
-108
-105
-104
-102
-101
-99
-99
-98
-98
-98
-98
-97
-96
-95
-94
-93
-93
-92
-93
-93
-94
-94
-94
-93
-92
-91
-91
-91
-92
-92
-93
-93
-93
-93
-92
-91
-91
-90
-91
-91
-92
-92
-92
-91
-90
-89
-89
-89
-90
-90
-90
-90
-90
-90
-90
-89
-89
-88
-88
-88
-89
-89
-89
-89
-88
-87
-86
-85
-85
-84
-84
-83
-82
-81
-81
-80
-80
-79
-79
-78
-78
-77
-77
-76
-75
-73
-72
-71
-70
-69
-69
-69
-68
-67
-66
-64
-63
-61
-61
-60
-60
-60
-60
-59
-58
-57
-56
-55
-54
-53
-54
-54
-54
-53
-53
-53
-53
-53
-54
-54
-55
-55
-56
-57
-58
-58
-58
-58
-59
-60
-63
-66
-69
-71
-73
-74
-76
-77
-78
-79
-81
-83
-85
-87
-88
-89
-90
-91
-92
-93
-95
-96
-97
-98
-99
-99
-100
-100
-101
-101
-102
-102
-103
-103
-103
-102
-102
-101
-101
-101
-102
-102
-102
-102
-102
-102
-102
-101
-101
-101
-101
-101
-102
-102
-102
-102
-102
-102
-102
-102
-103
-103
-104
-104
-102
-100
-98
-96
-96
-95
-95
-94
-95
-96
-97
-98
-98
-98
-98
-98
-98
-97
-97
-96
-97
-97
-98
-98
-98
-98
-98
-98
-98
-98
-98
-98
-98
-98
-98
-98
-98
-97
-97
-96
-97
-97
-98
-98
-99
-99
-100
-100
-101
-101
-102
-102
-102
-102
-102
-102
-102
-102
-102
-102
-103
-103
-104
-104
-104
-103
-103
-102
-102
-102
-102
-102
-103
-103
-104
-104
-104
-103
-103
-102
-102
-102
-102
-102
-102
-102
-102
-102
-103
-103
-103
-103
-104
-104
-104
-104
-104
-104
-104
-103
-103
-103
-103
-102
-102
-102
-102
-102
-102
-102
-102
-102
-103
-103
-104
-104
-104
-103
-103
-102
-102
-102
-102
-102
-103
-103
-103
-103
-104
-104
-105
-105
-106
-106
-107
-107
-107
-106
-106
-105
-106
-106
-106
-106
-106
-106
-106
-105
-105
-105
-105
-104
-104
-104
-104
-104
-104
-104
-104
-103
-102
-101
-100
-98
-97
-96
-94
-92
-91
-89
-89
-89
-91
-92
-94
-95
-97
-99
-101
-102
-103
-104
-104
-104
-105
-106
-106
-106
-107
-107
-108
-109
-109
-109
-109
-108
-109
-109
-109
-109
-108
-106
-105
-104
-105
-105
-105
-105
-105
-105
-105
-105
-106
-106
-107
-107
-107
-106
-105
-103
-103
-103
-103
-103
-103
-102
-101
-100
-101
-101
-101
-101
-102
-102
-102
-102
-102
-102
-102
-102
-101
-99
-95
-91
-87
-83
-81
-78
-76
-74
-74
-74
-78
-81
-85
-89
-105
-120
-150
-180
-207
-234
-250
-265
-254
-242
-220
-197
-187
-177
-173
-168
-169
-170
-169
-168
-160
-152
-141
-130
-122
-114
-111
-107
-105
-102
-100
-98
-97
-95
-94
-93
-93
-92
-92
-92
-92
-91
-90
-89
-89
-88
-89
-89
-90
-90
-90
-90
-90
-89
-89
-88
-89
-89
-90
-90
-90
-90
-89
-88
-88
-87
-87
-87
-88
-88
-88
-88
-88
-87
-87
-86
-86
-86
-86
-85
-85
-85
-85
-84
-84
-84
-84
-84
-85
-86
-87
-87
-86
-84
-83
-81
-81
-80
-80
-80
-80
-80
-79
-78
-78
-77
-77
-76
-76
-76
-75
-74
-73
-72
-71
-69
-69
-68
-68
-68
-67
-65
-63
-60
-59
-57
-57
-56
-57
-57
-57
-56
-56
-55
-54
-53
-53
-53
-54
-54
-55
-55
-55
-54
-54
-54
-54
-54
-55
-56
-57
-58
-59
-60
-61
-61
-63
-64
-66
-68
-70
-72
-73
-74
-76
-77
-79
-80
-82
-84
-86
-88
-89
-90
-91
-91
-92
-93
-94
-95
-96
-97
-97
-97
-98
-98
-98
-98
-99
-100
-100
-100
-100
-99
-98
-97
-98
-98
-98
-98
-99
-99
-99
-98
-98
-98
-98
-98
-98
-98
-98
-98
-98
-98
-98
-98
-98
-98
-98
-97
-97
-97
-97
-97
-97
-97
-97
-96
-96
-96
-96
-95
-95
-95
-95
-95
-95
-95
-95
-94
-94
-94
-94
-94
-94
-94
-94
-94
-95
-95
-95
-95
-95
-95
-95
-95
-95
-94
-93
-92
-94
-96
-98
-100
-101
-101
-102
-102
-101
-100
-99
-98
-98
-97
-97
-96
-97
-97
-98
-98
-99
-99
-100
-100
-100
-99
-99
-98
-98
-98
-98
-98
-99
-99
-100
-100
-100
-99
-99
-98
-98
-98
-98
-98
-99
-99
-99
-99
-100
-100
-100
-100
-100
-100
-100
-99
-99
-98
-97
-96
-98
-100
-102
-104
-104
-103
-103
-102
-102
-102
-102
-102
-102
-102
-102
-101
-101
-101
-101
-101
-101
-101
-101
-100
-100
-100
-100
-99
-100
-100
-101
-101
-102
-102
-102
-102
-102
-102
-102
-101
-101
-101
-102
-102
-102
-102
-102
-101
-101
-101
-101
-100
-100
-100
-100
-100
-100
-100
-100
-99
-99
-99
-98
-96
-95
-94
-93
-92
-90
-88
-87
-85
-85
-85
-86
-87
-89
-91
-93
-94
-96
-98
-99
-100
-101
-101
-102
-103
-104
-104
-104
-104
-105
-106
-106
-105
-105
-104
-105
-105
-105
-104
-103
-101
-101
-101
-102
-102
-102
-101
-101
-100
-100
-100
-101
-101
-102
-102
-102
-101
-100
-99
-99
-99
-100
-101
-101
-101
-100
-99
-99
-98
-98
-98
-98
-98
-98
-98
-98
-97
-97
-96
-95
-93
-89
-85
-81
-76
-74
-71
-69
-67
-68
-69
-71
-73
-77
-81
-95
-108
-136
-164
-196
-228
-245
-261
-255
-248
-233
-217
-207
-197
-193
-188
-187
-186
-180
-174
-162
-150
-138
-125
-115
-104
-100
-95
-94
-93
-92
-90
-89
-87
-86
-85
-85
-84
-85
-85
-85
-85
-84
-82
-81
-80
-81
-81
-82
-82
-82
-82
-82
-81
-81
-80
-80
-80
-81
-81
-81
-81
-80
-78
-77
-76
-77
-78
-79
-80
-80
-80
-80
-79
-79
-78
-78
-77
-77
-76
-76
-75
-75
-74
-73
-72
-72
-72
-73
-73
-73
-73
-72
-71
-70
-69
-69
-68
-69
-69
-69
-69
-68
-66
-65
-63
-63
-62
-61
-60
-59
-58
-56
-54
-53
-51
-50
-48
-48
-47
-46
-44
-42
-40
-39
-37
-37
-36
-36
-36
-36
-35
-34
-33
-32
-31
-30
-29
-30
-30
-30
-29
-29
-29
-29
-29
-30
-30
-31
-31
-33
-34
-35
-35
-36
-37
-39
-40
-43
-46
-48
-50
-52
-54
-56
-57
-59
-60
-63
-65
-68
-70
-72
-73
-74
-74
-75
-75
-77
-79
-81
-82
-83
-83
-84
-84
-85
-85
-86
-87
-88
-88
-88
-87
-86
-85
-85
-85
-86
-87
-88
-88
-88
-87
-87
-86
-86
-86
-86
-85
-85
-85
-85
-84
-84
-84
-84
-83
-83
-83
-83
-82
-82
-82
-82
-82
-82
-82
-82
-82
-82
-82
-82
-82
-82
-81
-81
-80
-81
-81
-82
-82
-82
-82
-82
-82
-82
-82
-82
-82
-82
-82
-82
-82
-82
-81
-81
-80
-81
-81
-82
-82
-82
-82
-82
-82
-82
-82
-82
-82
-82
-82
-82
-82
-83
-83
-83
-83
-83
-83
-83
-83
-84
-84
-84
-84
-85
-85
-85
-85
-85
-85
-85
-85
-86
-86
-86
-86
-86
-86
-86
-86
-86
-86
-86
-86
-86
-85
-85
-84
-85
-85
-86
-86
-86
-86
-86
-86
-86
-86
-86
-86
-86
-86
-86
-86
-86
-86
-86
-86
-86
-86
-86
-86
-86
-85
-85
-84
-85
-85
-86
-86
-86
-86
-86
-86
-86
-86
-86
-86
-86
-86
-86
-86
-86
-86
-86
-86
-86
-86
-86
-86
-86
-85
-85
-85
-86
-86
-86
-86
-87
-87
-88
-88
-88
-87
-87
-86
-86
-86
-86
-86
-86
-86
-86
-86
-85
-84
-83
-81
-80
-78
-76
-73
-72
-70
-70
-69
-70
-71
-73
-74
-76
-77
-79
-80
-82
-83
-84
-84
-85
-86
-87
-87
-88
-89
-90
-91
-91
-91
-91
-90
-91
-91
-91
-90
-89
-88
-88
-87
-87
-87
-86
-85
-85
-84
-84
-84
-85
-85
-86
-86
-86
-85
-84
-83
-84
-84
-85
-85
-85
-84
-84
-83
-83
-83
-83
-82
-82
-82
-82
-81
-81
-80
-80
-79
-79
-78
-75
-71
-67
-62
-59
-56
-55
-53
-54
-54
-54
-53
-53
-53
-63
-72
-96
-120
-153
-186
-208
-229
-229
-228
-217
-205
-196
-186
-182
-178
-176
-173
-169
-164
-153
-142
-128
-114
-105
-95
-90
-85
-83
-80
-78
-76
-74
-72
-71
-69
-69
-68
-68
-68
-68
-68
-67
-66
-66
-66
-67
-67
-68
-68
-68
-67
-67
-66
-65
-64
-64
-64
-65
-65
-65
-65
-64
-63
-63
-63
-64
-65
-65
-65
-65
-64
-63
-62
-61
-60
-61
-61
-62
-62
-62
-62
-62
-61
-61
-60
-60
-60
-61
-61
-61
-61
-60
-59
-58
-57
-57
-56
-56
-55
-55
-54
-53
-52
-51
-50
-49
-48
-48
-47
-46
-44
-43
-41
-40
-38
-37
-36
-35
-34
-33
-32
-30
-28
-27
-26
-26
-26
-24
-22
-20
-17
-17
-16
-16
-15
-15
-15
-16
-16
-17
-17
-17
-16
-16
-16
-16
-15
-16
-16
-17
-17
-18
-18
-19
-19
-21
-22
-25
-27
-30
-32
-34
-35
-37
-39
-41
-42
-45
-48
-51
-53
-55
-57
-58
-59
-60
-61
-63
-64
-65
-65
-65
-65
-66
-66
-67
-67
-68
-69
-70
-70
-70
-69
-69
-68
-71
-73
-76
-78
-78
-77
-76
-75
-75
-74
-74
-73
-73
-72
-72
-71
-71
-71
-71
-70
-70
-70
-70
-70
-70
-70
-70
-70
-70
-70
-70
-70
-70
-70
-70
-69
-69
-69
-69
-68
-68
-68
-68
-68
-69
-69
-69
-69
-70
-70
-70
-70
-70
-70
-70
-70
-70
-70
-70
-70
-70
-70
-70
-69
-69
-69
-69
-68
-69
-69
-69
-69
-70
-70
-70
-70
-70
-70
-70
-70
-71
-71
-71
-71
-72
-72
-72
-72
-72
-72
-72
-72
-73
-73
-73
-73
-74
-74
-74
-74
-74
-74
-74
-74
-74
-74
-74
-74
-74
-73
-73
-72
-73
-73
-74
-74
-74
-74
-74
-74
-74
-74
-74
-74
-74
-74
-74
-74
-74
-74
-74
-73
-73
-73
-73
-72
-73
-73
-73
-73
-74
-74
-74
-74
-75
-75
-76
-76
-76
-75
-75
-74
-74
-74
-74
-73
-73
-73
-73
-72
-72
-71
-71
-70
-71
-72
-73
-73
-73
-73
-74
-74
-74
-74
-74
-74
-74
-74
-74
-74
-74
-74
-74
-73
-73
-72
-72
-71
-71
-70
-68
-66
-67
-68
-69
-70
-68
-65
-63
-61
-61
-61
-62
-62
-64
-65
-66
-67
-69
-71
-72
-73
-74
-75
-76
-77
-78
-79
-80
-81
-82
-82
-82
-81
-81
-80
-80
-80
-80
-80
-79
-78
-78
-78
-78
-78
-78
-77
-77
-76
-76
-75
-75
-75
-76
-77
-77
-77
-76
-75
-75
-75
-75
-75
-74
-73
-74
-74
-75
-76
-74
-72
-70
-68
-69
-69
-69
-69
-69
-69
-68
-67
-64
-61
-57
-53
-51
-48
-46
-44
-45
-45
-46
-47
-49
-51
-62
-73
-99
-125
-155
-185
-204
-223
-219
-214
-200
-185
-176
-167
-163
-159
-159
-158
-155
-151
-142
-132
-119
-106
-95
-84
-79
-73
-71
-69
-68
-67
-66
-65
-64
-62
-61
-60
-60
-60
-60
-59
-58
-57
-57
-56
-56
-56
-56
-56
-57
-57
-57
-57
-57
-56
-56
-56
-57
-57
-57
-56
-55
-54
-54
-53
-54
-55
-56
-56
-57
-57
-57
-57
-56
-55
-55
-54
-54
-54
-54
-54
-54
-53
-53
-52
-52
-52
-52
-52
-52
-52
-51
-49
-49
-48
-48
-47
-48
-48
-48
-47
-46
-45
-44
-43
-43
-42
-42
-41
-40
-39
-37
-35
-34
-32
-31
-29
-29
-28
-27
-25
-23
-21
-19
-17
-17
-16
-16
-16
-16
-15
-14
-13
-12
-11
-11
-10
-11
-11
-11
-11
-11
-10
-10
-9
-9
-9
-9
-9
-10
-11
-12
-12
-13
-14
-16
-17
-20
-23
-25
-27
-29
-30
-32
-33
-35
-36
-39
-41
-44
-46
-48
-49
-50
-51
-52
-53
-55
-56
-57
-58
-59
-59
-60
-60
-61
-62
-63
-64
-65
-66
-66
-65
-65
-64
-65
-65
-66
-66
-66
-65
-65
-64
-63
-62
-62
-62
-62
-62
-62
-62
-62
-62
-62
-62
-62
-62
-62
-62
-62
-62
-62
-62
-62
-62
-62
-62
-62
-61
-61
-60
-60
-59
-59
-59
-59
-58
-58
-58
-58
-58
-59
-59
-60
-60
-60
-59
-59
-58
-58
-58
-58
-58
-58
-58
-58
-58
-58
-58
-58
-58
-59
-59
-60
-60
-59
-58
-57
-56
-58
-60
-62
-64
-64
-63
-63
-62
-62
-61
-61
-60
-61
-61
-62
-62
-62
-62
-62
-62
-62
-62
-62
-62
-62
-62
-62
-62
-62
-62
-62
-62
-62
-62
-62
-62
-63
-63
-63
-63
-63
-63
-63
-63
-63
-63
-63
-63
-64
-64
-64
-64
-64
-64
-64
-64
-64
-64
-64
-64
-64
-64
-64
-63
-63
-63
-63
-63
-63
-63
-63
-63
-63
-63
-63
-62
-62
-62
-62
-62
-63
-63
-64
-64
-65
-65
-66
-66
-66
-66
-66
-65
-64
-63
-63
-62
-63
-63
-63
-62
-62
-62
-62
-62
-63
-63
-63
-63
-64
-64
-64
-64
-64
-64
-64
-63
-62
-61
-60
-58
-57
-55
-53
-50
-49
-48
-49
-49
-50
-51
-53
-54
-56
-57
-59
-60
-61
-62
-63
-63
-64
-64
-64
-64
-65
-66
-68
-69
-70
-70
-70
-70
-71
-72
-73
-73
-72
-71
-71
-70
-69
-68
-67
-65
-65
-64
-64
-64
-65
-65
-66
-66
-65
-64
-63
-61
-62
-62
-63
-64
-64
-63
-63
-62
-62
-62
-62
-62
-62
-62
-62
-62
-61
-60
-59
-58
-58
-57
-54
-51
-47
-43
-41
-38
-37
-36
-37
-38
-38
-37
-37
-37
-46
-54
-77
-100
-129
-158
-176
-193
-195
-196
-187
-177
-168
-158
-154
-150
-148
-146
-142
-138
-129
-120
-108
-96
-86
-76
-71
-65
-63
-60
-58
-56
-54
-52
-51
-49
-48
-47
-47
-46
-46
-46
-46
-45
-45
-45
-46
-46
-47
-48
-48
-48
-48
-47
-46
-45
-45
-45
-45
-45
-45
-45
-44
-43
-43
-43
-44
-44
-45
-46
-46
-46
-46
-45
-44
-43
-43
-43
-43
-42
-42
-42
-41
-40
-40
-39
-39
-38
-39
-40
-40
-40
-40
-39
-38
-37
-37
-36
-36
-36
-36
-35
-34
-33
-32
-31
-31
-30
-30
-29
-28
-27
-26
-25
-24
-23
-22
-20
-19
-18
-17
-16
-14
-12
-11
-10
-10
-10
-10
-9
-8
-7
-6
-5
-4
-3
-3
-3
-4
-5
-5
-4
-3
-2
-3
-3
-4
-4
-3
-1
0
1
-2
-4
-7
-9
-9
-8
-9
-9
-11
-12
-13
-14
-16
-18
-20
-21
-24
-27
-30
-33
-35
-37
-38
-39
-41
-42
-44
-46
-46
-46
-46
-45
-48
-50
-53
-55
-54
-53
-52
-50
-50
-50
-50
-50
-51
-51
-52
-52
-53
-53
-53
-52
-52
-52
-52
-52
-52
-52
-52
-52
-52
-52
-52
-51
-51
-51
-51
-50
-50
-50
-50
-50
-50
-50
-50
-50
-50
-50
-50
-50
-50
-50
-50
-50
-50
-50
-50
-49
-49
-49
-49
-49
-49
-49
-49
-48
-49
-49
-49
-49
-49
-49
-49
-49
-50
-50
-50
-50
-50
-50
-50
-50
-50
-50
-50
-50
-50
-50
-50
-50
-50
-50
-50
-50
-51
-51
-51
-51
-52
-52
-52
-52
-53
-53
-53
-53
-54
-54
-54
-54
-54
-54
-54
-54
-54
-54
-54
-54
-54
-54
-54
-54
-54
-54
-54
-54
-54
-54
-54
-54
-55
-55
-55
-55
-56
-56
-56
-56
-56
-56
-56
-55
-55
-55
-55
-54
-54
-54
-54
-54
-55
-55
-56
-56
-56
-55
-55
-54
-55
-55
-56
-56
-56
-56
-56
-56
-57
-57
-58
-58
-59
-59
-60
-60
-58
-56
-54
-51
-53
-55
-58
-60
-60
-59
-59
-58
-57
-55
-54
-52
-54
-56
-58
-60
-60
-59
-59
-58
-58
-57
-56
-54
-54
-53
-53
-52
-50
-48
-47
-45
-44
-43
-43
-43
-45
-46
-48
-49
-51
-53
-54
-55
-56
-57
-58
-59
-60
-61
-62
-62
-64
-65
-65
-65
-65
-64
-65
-65
-65
-64
-63
-61
-62
-62
-63
-64
-62
-59
-57
-54
-56
-58
-61
-63
-63
-63
-62
-61
-60
-59
-59
-59
-60
-61
-61
-60
-60
-60
-60
-60
-60
-60
-60
-59
-59
-59
-58
-57
-57
-56
-55
-53
-50
-46
-42
-38
-36
-34
-33
-31
-32
-33
-35
-37
-40
-43
-56
-68
-92
-116
-144
-172
-191
-210
-206
-202
-186
-170
-160
-149
-141
-132
-127
-122
-123
-124
-119
-114
-104
-94
-86
-78
-72
-66
-64
-61
-59
-56
-54
-51
-50
-48
-47
-46
-47
-47
-47
-47
-47
-46
-46
-45
-46
-47
-48
-48
-48
-48
-47
-46
-46
-45
-45
-44
-45
-45
-45
-45
-44
-43
-43
-42
-43
-44
-45
-45
-46
-46
-46
-45
-45
-45
-45
-45
-46
-46
-46
-46
-46
-45
-45
-44
-44
-44
-45
-45
-45
-45
-44
-42
-41
-40
-39
-38
-39
-39
-39
-38
-38
-37
-36
-35
-35
-35
-35
-34
-33
-32
-31
-29
-28
-26
-25
-23
-23
-22
-21
-20
-19
-18
-18
-17
-17
-16
-16
-16
-16
-15
-14
-13
-12
-11
-11
-10
-11
-11
-11
-11
-11
-11
-11
-11
-12
-12
-13
-13
-14
-15
-15
-15
-16
-16
-17
-18
-21
-23
-25
-27
-29
-30
-31
-32
-33
-34
-36
-38
-41
