##1.4

M
U
8367
00/00/0000,00/00/0000
00:00:00
Adult
1 14
10 255
0
50 100
QTcHodge
0 0
12Lead
110000111111
200
500
5000
12
-83
-69
-78
-78
-78
-84
-74
-69
-71
-77
-77
-78
-79
-80
-81
-74
-71
-69
-77
-72
-54
-72
-79
-79
-75
-68
-71
-68
-68
-72
-73
-72
-71
-76
-76
-70
-67
-64
-66
-67
-63
-60
-63
-67
-64
-59
-58
-59
-54
-52
-52
-55
-58
-58
-58
-57
-45
-47
-46
-52
-58
-54
-48
-53
-52
-55
-60
-59
-57
-58
-60
-66
-63
-61
-64
-62
-59
-62
-61
-68
-67
-67
-73
-76
-72
-77
-77
-76
-69
-66
-70
-66
-69
-74
-73
-71
-72
-64
-55
-64
-75
-75
-68
-66
-75
-75
-72
-68
-72
-71
-73
-73
-72
-73
-74
-74
-72
-68
-65
-70
-71
-64
-71
-75
-76
-71
-67
-53
-61
-76
-77
-75
-75
-69
-62
-58
-51
-40
-33
-29
-22
-13
1
8
18
26
33
62
56
38
32
3
-20
-33
-50
-69
-80
-86
-84
-82
-81
-75
-73
-72
-67
-61
-59
-57
-53
-45
-53
-66
-58
-56
-53
-53
-50
-43
-58
-68
-57
-56
-55
-56
-56
-53
-53
-51
-52
-54
-50
-52
-44
-52
-60
-56
-48
-44
-50
-51
-52
-50
-51
-50
-46
-49
-51
-50
-44
-46
-50
-43
-48
-49
-48
-52
-53
-40
-42
-41
-38
-35
-40
-42
-42
-38
-37
-39
-35
-36
-33
-44
-39
-35
-31
-28
-30
-23
-30
-29
-28
-29
-21
-21
-26
-24
-18
-15
-16
-12
-11
-13
-15
-16
-7
-2
-4
-3
-12
0
19
10
0
8
7
11
7
16
15
17
17
20
17
19
19
18
22
26
26
26
13
17
16
15
12
17
12
6
5
4
-3
-11
-5
-7
-14
-13
-22
-27
-22
-22
-26
-26
-29
-31
-33
-38
-32
-31
-45
-37
-43
-47
-45
-44
-44
-45
-49
-51
-45
-44
-46
-46
-48
-46
-54
-56
-44
-47
-44
-39
-39
-48
-48
-43
-52
-54
-49
-43
-40
-48
-53
-50
-44
-47
-44
-51
-49
-50
-48
-47
-46
-51
-51
-43
-45
-43
-37
-48
-46
-40
-41
-45
-44
-42
-46
-54
-47
-46
-41
-39
-49
-54
-48
-46
-51
-47
-43
-40
-44
-39
-52
-47
-46
-50
-52
-45
-39
-38
-39
-35
-37
-46
-42
-48
-51
-42
-47
-46
-46
-39
-39
-40
-47
-44
-46
-48
-39
-39
-43
-49
-39
-37
-47
-45
-46
-45
-43
-43
-43
-38
-41
-38
-36
-40
-45
-45
-45
-42
-43
-42
-34
-40
-47
-42
-40
-38
-38
-45
-40
-35
-32
-34
-32
-45
-52
-39
-40
-41
-42
-36
-37
-38
-37
-40
-40
-42
-39
-41
-34
-35
-40
-38
-40
-36
-39
-36
-37
-37
-39
-37
-48
-40
-39
-36
-37
-39
-35
-39
-42
-41
-36
-36
-31
-33
-29
-41
-41
-38
-38
-37
-31
-35
-39
-29
-30
-26
-35
-43
-38
-27
-34
-29
-32
-33
-34
-28
-27
-27
-36
-33
-32
-31
-32
-31
-29
-27
-29
-31
-29
-31
-28
-30
-28
-26
-28
-25
-31
-31
-26
-34
-22
-31
-28
-27
-29
-27
-23
-27
-25
-30
-31
-25
-28
-21
-17
-26
-24
-21
-30
-29
-27
-28
-25
-23
-28
-18
-23
-27
-26
-22
-23
-29
-28
-24
-30
-27
-26
-27
-25
-24
-19
-18
-22
-26
-23
-20
-25
-27
-27
-19
-23
-20
-19
-27
-26
-17
-19
-22
-25
-23
-20
-21
-20
-14
-8
-23
-26
-23
-19
-12
-16
-15
-14
-11
-10
-16
-16
-11
-6
-10
-10
-6
-8
-5
-1
-9
-2
9
10
-1
1
1
-1
2
11
7
0
-2
1
6
-4
-1
1
3
-1
-2
-3
0
-5
-8
-13
-10
0
-11
-9
-13
-11
-11
-24
-22
-20
-18
-22
-22
-11
-6
-21
-22
-19
-17
-31
-26
-24
-22
-21
-31
-21
-22
-22
-24
-19
-22
-24
-20
-24
-24
-24
-23
-23
-23
-24
-18
-18
-19
-18
-22
-28
-23
-20
-22
-24
-12
-15
-20
-21
-25
-24
-20
-17
-19
-21
-25
-21
-12
-6
6
5
5
14
32
50
52
73
80
82
79
77
81
76
54
28
8
-8
-29
-48
-51
-62
-59
-52
-51
-35
-26
-25
-11
-5
-5
-8
-8
-7
-1
-5
-2
1
-2
-2
-4
2
5
8
4
8
8
7
7
7
3
6
2
2
9
13
7
6
0
11
7
2
0
-5
3
5
14
5
-1
7
10
6
10
5
1
3
8
15
6
14
15
12
7
1
4
7
6
7
12
16
19
22
13
17
21
14
14
17
20
21
27
23
29
27
31
24
30
22
23
37
38
40
43
43
51
50
49
48
49
51
47
48
56
56
56
62
64
68
62
68
63
76
77
75
71
70
74
78
77
74
74
77
73
70
76
72
72
65
74
78
64
59
61
61
57
56
51
49
51
49
42
31
38
36
29
29
30
23
20
25
18
16
14
15
13
11
10
10
10
9
7
11
14
21
12
4
6
4
11
20
10
5
4
8
9
12
-1
-3
9
6
2
6
10
7
11
10
10
12
6
5
2
8
4
1
11
11
7
1
-2
6
10
11
8
5
10
12
12
9
14
8
10
11
15
16
18
23
10
11
15
14
11
15
15
15
13
15
19
14
20
34
13
17
16
16
18
18
21
16
11
10
19
28
26
21
25
18
15
15
12
20
18
26
21
13
22
19
20
21
19
23
23
19
22
23
20
24
25
20
20
20
19
27
22
18
24
21
18
20
23
17
17
23
29
21
18
21
24
18
17
23
25
22
25
20
11
16
26
22
20
19
14
18
25
22
22
23
16
20
15
17
25
16
20
26
21
25
22
18
22
21
17
24
21
14
20
17
16
22
16
21
23
20
15
26
22
19
22
26
25
24
21
19
26
29
29
16
14
14
17
20
24
20
22
27
33
27
14
22
22
22
28
26
21
20
16
22
21
25
22
17
24
22
20
10
8
19
18
16
18
18
20
29
26
20
14
16
20
16
11
22
24
28
27
26
28
28
31
35
30
27
24
29
30
31
31
34
37
38
45
36
31
42
35
35
39
36
37
37
31
35
33
25
28
28
29
37
30
27
37
18
19
26
31
32
29
24
14
19
16
17
24
26
16
15
23
17
23
17
14
18
17
14
20
29
17
7
12
21
15
9
17
18
21
18
17
12
6
14
15
19
22
13
15
22
14
15
21
21
20
19
18
24
18
16
15
21
19
13
14
17
28
33
32
50
52
67
78
89
94
102
113
130
140
134
124
109
89
66
45
35
19
6
4
4
4
-2
3
17
19
21
22
25
29
29
34
36
32
31
26
25
25
28
31
31
28
26
27
32
30
24
28
42
33
20
24
24
31
32
21
25
30
29
28
32
42
42
32
30
33
33
32
45
35
30
29
32
39
40
34
34
33
43
49
39
34
32
30
39
46
43
40
38
41
42
37
46
43
45
50
53
44
43
44
55
52
49
51
52
55
60
53
57
79
67
56
63
67
68
71
72
72
74
77
74
79
84
80
86
82
90
86
86
88
85
92
97
98
92
99
101
93
100
102
109
96
98
89
88
88
87
87
94
82
84
79
73
71
71
67
70
65
57
55
55
55
49
43
52
41
37
41
37
36
36
31
32
29
20
25
24
27
29
26
22
21
24
25
25
25
28
35
30
30
25
12
16
15
12
17
15
19
22
24
24
23
29
26
26
20
12
19
26
23
23
27
20
17
22
19
29
23
19
20
23
21
18
15
15
15
17
16
14
25
29
22
13
16
14
17
22
20
22
16
22
27
23
26
29
31
20
19
22
21
23
24
24
25
27
21
24
30
26
20
27
32
31
29
30
30
27
24
26
23
31
44
36
29
24
26
24
22
26
21
20
23
21
28
24
23
34
30
26
31
35
25
31
36
29
21
31
33
34
23
24
30
28
28
25
27
26
26
28
32
36
32
27
28
28
26
28
35
34
28
19
28
29
19
13
29
47
37
28
29
27
28
26
28
34
26
25
32
29
27
27
24
23
21
30
25
24
27
27
25
29
30
31
28
25
30
24
22
25
26
29
18
21
26
25
31
28
31
27
24
26
21
24
28
32
31
32
31
29
27
30
25
23
27
26
26
26
27
28
29
32
24
27
29
31
29
27
29
36
30
32
33
26
28
30
29
28
28
33
30
25
33
32
29
23
25
27
31
33
29
28
27
31
32
34
37
29
23
31
24
35
32
36
36
38
38
37
39
46
45
43
41
39
35
44
39
43
49
51
57
61
45
43
41
42
45
55
54
39
43
48
45
45
47
46
48
47
37
39
37
42
40
38
32
34
34
39
39
27
21
24
24
28
29
31
34
30
29
32
26
25
27
34
34
33
23
30
29
26
18
18
26
34
34
18
22
23
30
34
29
28
27
32
32
24
18
28
28
32
30
23
24
25
33
41
27
23
29
26
24
30
27
32
44
49
63
69
83
93
96
111
118
130
150
150
158
144
128
109
87
70
44
17
10
7
2
5
7
15
19
18
37
38
31
33
40
41
35
33
40
36
41
37
42
46
42
44
44
45
39
36
45
51
45
35
45
43
42
38
44
51
41
40
45
51
44
45
51
48
43
38
43
39
35
57
53
47
50
50
52
50
54
50
45
49
49
53
47
46
50
54
55
58
56
60
56
62
69
72
60
50
50
62
60
59
65
63
68
72
67
71
68
70
61
70
79
80
84
91
85
83
85
87
86
86
92
99
100
102
102
102
106
96
97
108
110
107
102
110
112
112
110
113
107
109
107
113
113
109
110
109
110
97
92
106
100
92
92
95
91
88
81
73
67
67
63
59
58
59
61
53
51
46
44
45
35
39
39
46
51
46
51
41
33
34
30
34
36
40
41
41
34
29
27
33
34
39
35
35
30
34
27
30
32
33
41
32
36
42
42
38
33
30
30
26
34
36
38
31
30
37
37
36
38
33
31
38
34
40
35
35
35
37
32
28
33
40
33
33
35
39
38
38
34
38
37
43
38
42
41
41
41
36
36
33
37
36
33
40
42
48
36
38
34
41
38
40
39
37
33
35
36
42
37
38
45
46
45
37
33
35
36
41
42
43
35
42
39
44
42
40
37
26
30
35
42
38
30
39
40
41
38
41
38
35
40
39
41
34
40
45
40
33
30
33
28
40
43
33
23
37
39
26
40
43
35
36
38
38
31
39
36
37
36
37
35
38
42
36
38
37
30
34
34
32
34
40
39
41
34
32
38
38
41
35
28
27
30
40
40
37
34
34
37
29
36
36
35
45
41
32
35
34
37
45
37
34
41
40
39
43
33
32
35
37
36
38
31
38
41
38
36
43
40
43
41
44
46
49
49
40
45
51
51
47
46
52
47
60
54
46
50
55
51
49
49
62
51
53
57
62
51
47
40
53
46
45
44
40
47
51
42
43
33
42
38
42
38
42
32
37
35
38
39
42
34
33
36
35
33
41
38
30
31
34
27
38
38
40
37
37
33
32
33
30
32
32
38
43
32
32
38
36
31
31
32
33
28
32
35
37
46
38
35
39
36
35
30
27
35
43
42
45
44
55
57
63
75
81
89
106
124
132
132
129
128
128
110
96
71
50
34
15
-2
-5
-14
-21
-12
-1
16
21
25
29
38
41
36
44
41
37
41
47
51
48
39
43
49
46
43
48
45
42
51
58
65
46
39
45
49
50
50
43
48
55
48
43
47
50
47
48
52
55
52
52
45
52
48
55
55
55
49
49
55
56
55
60
59
52
51
59
63
65
55
59
57
54
63
62
61
63
64
61
65
66
66
68
71
70
66
74
72
81
76
73
71
77
74
82
86
88
87
91
89
95
89
93
93
99
98
107
103
103
109
115
113
112
109
109
122
121
118
116
120
117
118
128
121
116
121
122
122
112
110
115
107
102
101
97
97
101
93
82
78
89
79
69
64
70
62
59
61
61
57
57
59
57
46
44
48
48
47
44
42
40
41
50
43
45
42
40
38
40
36
39
38
45
47
44
34
34
44
46
38
32
31
34
27
36
38
42
43
36
32
35
38
34
35
32
32
35
36
38
44
39
35
43
45
42
43
50
44
43
30
32
36
45
44
42
30
38
46
42
41
42
41
40
42
41
39
35
39
43
41
48
43
33
43
37
34
43
41
41
34
39
36
48
43
39
38
42
40
45
46
38
40
46
37
40
35
44
37
32
37
47
41
37
40
38
39
41
45
46
40
38
38
40
35
36
39
34
35
43
36
37
33
44
48
40
38
43
44
40
39
39
41
41
30
28
45
54
40
41
43
39
35
29
36
36
34
34
41
42
38
50
45
36
32
36
35
39
36
38
39
41
42
43
41
42
41
40
43
45
46
47
29
36
41
37
37
43
38
39
35
42
45
42
36
38
38
43
42
39
42
38
33
44
49
44
41
42
43
50
47
50
47
45
43
50
51
59
60
51
41
50
57
57
57
60
56
57
58
55
62
65
61
58
58
56
57
60
54
55
57
61
50
49
49
56
61
62
41
48
46
48
47
43
44
44
35
40
42
41
28
32
31
43
41
41
34
38
36
45
46
37
38
43
45
34
35
40
35
32
30
35
41
40
30
34
42
44
37
40
42
35
30
32
36
36
37
38
38
37
40
46
45
45
41
36
33
38
30
30
35
56
55
57
67
75
85
101
112
121
128
140
148
153
145
133
126
116
95
77
59
43
22
10
9
11
18
26
35
38
36
43
41
41
45
50
46
51
52
60
52
47
40
47
47
48
50
49
54
56
53
48
47
51
46
42
50
59
53
49
50
54
50
54
49
52
48
62
56
51
55
58
55
48
51
52
48
56
58
63
66
60
49
60
56
56
56
61
62
61
68
68
62
61
65
66
61
63
62
63
65
71
66
70
72
78
71
73
74
77
86
89
84
72
70
83
92
88
86
89
87
91
91
95
98
93
91
105
113
110
102
115
108
108
104
105
110
114
120
107
111
125
126
114
106
112
109
114
116
115
108
102
96
101
97
94
95
95
94
86
79
75
73
81
70
67
68
71
63
60
59
56
49
46
43
46
50
47
39
44
43
39
37
42
41
47
45
49
51
41
38
44
41
35
33
33
35
40
40
50
43
37
37
40
37
37
39
38
34
39
43
39
36
37
36
35
37
46
39
42
35
43
40
40
35
34
33
41
47
46
37
38
37
33
40
34
39
40
37
41
33
36
38
39
38
44
39
43
42
39
40
37
37
40
43
38
39
39
43
48
43
41
37
39
37
41
43
40
39
44
41
45
40
35
38
38
37
44
45
48
40
37
34
36
34
38
38
45
49
49
45
38
35
37
35
40
38
43
40
38
41
42
47
45
33
38
37
41
41
47
41
38
34
34
33
36
37
48
46
39
43
44
36
33
39
37
41
39
36
38
35
35
43
46
33
35
33
42
39
45
37
40
39
31
36
37
39
37
39
41
44
48
41
36
40
40
41
41
38
40
41
38
36
35
38
42
36
37
40
36
41
43
44
34
35
41
38
39
37
38
42
40
33
39
42
52
51
53
51
53
47
47
47
48
56
55
52
51
55
60
58
60
59
58
53
56
59
60
60
54
52
55
51
50
52
53
54
55
54
52
45
47
47
45
42
35
36
42
35
34
33
32
27
23
36
38
40
42
41
42
43
37
28
33
30
32
37
40
34
38
26
27
31
30
31
34
32
32
33
37
43
33
33
33
33
35
36
40
41
36
34
38
42
38
28
35
32
37
33
34
34
29
29
33
42
47
48
56
63
74
83
95
107
121
132
141
147
151
149
140
118
95
78
69
40
9
0
-7
-9
-9
3
17
21
21
24
32
36
39
45
44
43
50
44
47
47
42
43
52
56
57
53
50
54
42
40
52
49
47
45
50
51
46
50
48
41
49
50
55
50
53
58
54
45
49
47
54
57
61
58
56
56
51
55
62
56
49
48
57
58
54
55
57
58
58
59
61
62
63
65
64
67
63
59
61
65
67
68
74
72
78
73
69
60
72
82
82
79
78
86
90
84
81
79
82
86
94
94
99
105
103
100
102
99
106
109
110
111
110
111
123
125
120
107
103
107
112
108
112
121
118
116
115
107
106
104
104
103
105
98
101
95
84
79
77
81
77
69
72
66
61
58
58
49
48
50
50
51
49
46
50
47
42
43
45
38
43
36
33
35
38
39
39
37
34
31
35
38
36
38
41
35
43
43
26
25
39
35
36
41
41
37
36
32
36
36
34
36
36
42
46
43
40
35
34
32
37
44
40
37
44
40
43
39
29
32
38
41
44
41
40
44
42
37
38
35
37
41
44
43
42
45
41
34
39
41
42
40
43
45
49
54
46
36
40
42
35
33
43
47
42
39
39
44
38
38
38
39
41
39
40
35
43
42
33
37
39
38
48
45
45
44
46
39
29
33
40
48
45
36
40
38
36
40
39
32
34
40
44
49
44
39
36
34
33
30
31
40
43
43
46
44
53
40
34
33
35
36
42
44
39
37
39
41
37
35
39
43
49
41
40
43
40
35
42
38
35
45
47
44
41
41
41
37
38
33
41
44
47
43
44
42
43
40
42
44
44
38
52
49
50
52
48
46
48
47
51
52
48
57
56
50
53
59
53
45
54
62
62
61
59
57
54
51
54
54
54
52
51
54
56
55
46
47
52
39
48
47
41
51
56
45
35
35
37
32
32
33
43
46
40
37
38
28
30
34
35
32
39
39
38
42
44
32
29
26
35
42
27
30
39
42
32
28
28
31
30
31
32
36
41
34
38
41
33
23
23
32
39
37
40
42
37
36
31
28
30
35
37
38
50
61
57
57
64
82
95
109
124
131
142
138
143
152
136
117
96
77
69
49
32
11
3
3
2
13
19
23
25
35
44
38
32
39
44
39
41
48
48
51
50
44
47
48
39
35
38
44
45
45
49
51
50
46
42
42
44
45
48
48
49
51
56
59
51
44
43
32
42
46
47
46
53
53
51
50
48
47
49
55
50
54
54
49
49
53
59
55
51
55
64
59
57
60
60
63
58
57
61
63
67
65
66
67
63
66
68
71
74
70
74
80
90
92
77
69
70
77
88
91
102
96
92
96
96
95
100
103
100
106
112
114
108
106
106
107
106
102
117
121
120
124
110
110
105
105
106
104
109
106
109
106
96
100
91
81
77
77
76
79
81
68
63
64
52
54
51
58
59
61
56
53
48
37
38
46
41
38
43
43
43
42
39
38
33
28
32
36
36
38
40
42
37
40
40
26
36
33
32
31
34
39
41
34
34
32
35
43
35
35
45
43
35
26
24
32
34
39
39
42
39
36
33
39
34
33
30
32
42
39
40
38
38
39
36
34
32
32
32
38
35
34
40
40
33
27
26
31
32
41
44
39
40
39
28
30
31
26
28
34
45
49
38
30
26
30
26
27
31
32
42
39
36
41
39
29
27
33
33
33
41
41
34
37
33
31
28
34
36
35
37
36
40
41
31
25
28
33
32
31
32
27
30
36
39
34
30
24
27
35
40
37
36
30
25
35
33
32
28
32
32
35
37
37
38
33
31
29
31
35
39
32
36
31
32
27
29
29
29
33
32
35
42
32
34
32
29
31
28
29
36
40
35
27
35
37
36
31
29
34
37
40
40
36
30
31
32
31
31
33
39
41
43
34
32
31
32
32
29
32
33
38
37
32
28
32
30
28
32
36
39
35
41
36
35
36
29
28
31
31
32
36
41
42
42
45
42
41
46
42
46
40
46
51
48
45
44
45
56
61
51
49
49
46
47
47
46
43
40
47
49
43
50
54
41
32
33
43
45
43
39
35
37
37
40
37
27
24
25
25
30
31
31
36
34
27
26
24
28
25
27
23
25
26
27
28
25
25
30
29
27
32
33
27
24
24
19
30
27
28
31
29
25
28
26
23
20
26
24
25
28
33
30
27
29
24
23
30
25
23
30
39
51
49
43
52
63
78
88
99
111
122
135
146
151
143
131
117
102
77
50
36
36
17
1
4
9
10
14
26
30
29
32
38
39
35
40
38
38
38
39
39
33
33
38
42
41
30
33
35
39
38
40
36
38
37
37
36
39
39
36
39
37
38
39
34
36
42
43
42
39
41
41
44
46
39
35
37
36
40
37
38
38
42
38
39
46
54
52
51
50
48
48
52
48
48
48
48
50
53
50
58
57
55
58
59
57
54
55
66
64
60
68
68
65
69
76
75
73
72
77
77
79
83
82
82
85
85
89
89
95
97
93
99
99
102
106
103
98
99
100
104
105
104
104
104
98
101
103
94
90
94
95
92
93
92
84
74
73
73
66
58
62
63
62
59
55
51
52
46
48
50
49
42
41
40
37
33
37
32
34
30
33
38
29
27
32
32
28
24
26
31
34
35
23
28
29
27
29
32
34
23
27
34
26
19
23
23
25
25
28
31
33
31
26
27
26
28
34
33
26
20
29
28
30
30
22
30
25
19
22
26
28
26
25
24
29
28
27
26
21
22
30
32
30
27
28
22
28
30
25
27
32
27
25
31
25
30
23
28
31
29
30
18
22
22
17
26
29
27
30
27
31
27
29
26
20
23
31
26
29
32
32
29
32
29
28
28
28
27
31
29
28
21
29
30
23
24
28
25
30
26
24
26
29
30
26
24
27
22
21
24
27
29
28
29
27
31
32
27
16
23
30
26
31
33
24
26
25
28
32
28
28
29
30
31
29
27
24
27
29
28
32
26
26
32
34
25
22
19
21
26
28
28
26
29
25
26
28
29
25
19
23
28
27
24
26
28
30
28
25
28
28
30
28
26
29
24
17
26
26
27
24
25
26
28
32
33
26
23
23
18
26
28
29
30
29
22
29
28
26
26
27
30
26
24
26
32
24
21
22
23
21
28
31
28
28
24
26
28
21
25
27
28
29
26
21
30
26
34
39
37
37
31
32
35
32
35
31
32
37
39
50
51
55
40
40
46
39
43
38
43
45
44
42
43
39
36
43
44
44
38
40
33
33
33
28
32
31
26
28
27
23
21
22
26
26
25
27
24
25
30
25
19
21
17
21
31
22
20
23
21
17
14
20
26
24
22
24
26
23
23
29
18
19
21
24
30
29
15
16
26
24
24
27
24
28
32
26
17
26
25
24
22
23
24
28
29
31
35
36
43
58
71
73
91
111
120
121
124
133
131
115
98
80
58
43
18
-3
-15
-20
-23
-25
-16
-6
3
8
12
16
27
32
31
35
38
32
30
33
36
43
39
44
46
37
36
34
30
34
36
42
43
38
38
40
43
35
23
33
43
43
33
37
43
44
39
41
41
43
40
44
47
43
45
44
39
41
44
43
46
42
46
47
50
52
46
44
46
56
56
55
53
54
52
55
55
52
59
61
54
61
66
54
56
64
62
65
60
67
72
70
76
76
78
70
74
78
76
80
83
85
85
91
89
89
94
99
100
99
98
98
90
100
104
108
110
105
104
111
112
103
107
106
105
106
108
106
101
103
104
93
99
91
90
91
86
80
76
72
74
72
70
68
64
62
54
46
45
44
51
49
52
51
42
49
40
31
35
35
39
37
32
34
35
31
36
41
41
35
32
35
28
25
31
35
34
30
29
36
34
32
31
31
32
29
32
36
39
35
33
32
34
35
33
31
34
33
33
35
37
36
32
34
37
33
30
37
45
37
33
33
34
29
34
35
35
30
35
38
39
39
36
35
31
33
37
35
35
37
36
33
34
37
34
39
34
29
36
34
36
38
39
34
34
31
31
34
38
39
36
39
34
33
29
30
30
28
28
33
39
35
33
35
35
32
33
33
37
36
33
33
29
26
28
34
40
43
37
27
28
32
33
30
29
-64
-62
-63
-60
-58
-55
-53
-52
-56
-59
-64
-62
-64
-64
-61
-54
-55
-54
-60
-67
-55
-56
-59
-57
-57
-49
-45
-48
-50
-52
-55
-58
-54
-55
-50
-44
-44
-41
-41
-43
-42
-30
-32
-32
-36
-34
-34
-39
-32
-35
-37
-35
-36
-31
-26
-27
-21
-18
-23
-31
-37
-42
-41
-41
-40
-41
-43
-37
-33
-41
-44
-48
-45
-47
-49
-46
-42
-42
-43
-47
-50
-52
-49
-51
-48
-50
-54
-51
-46
-40
-47
-47
-48
-49
-47
-45
-45
-41
-31
-41
-52
-50
-46
-43
-40
-39
-37
-35
-38
-39
-42
-44
-45
-43
-41
-40
-38
-38
-33
-38
-41
-44
-44
-40
-36
-32
-34
-28
-33
-35
-37
-28
-25
-24
-29
-31
-25
-15
-12
-3
3
10
25
53
89
112
123
139
131
105
75
52
42
24
14
-4
-24
-45
-59
-68
-70
-63
-57
-51
-40
-30
-25
-24
-26
-28
-33
-38
-29
-29
-27
-20
-23
-24
-25
-30
-28
-27
-27
-26
-24
-19
-20
-24
-23
-23
-26
-24
-25
-28
-25
-21
-18
-16
-16
-17
-23
-24
-17
-15
-16
-15
-11
-10
-10
-12
-16
-14
-19
-16
-14
-15
-20
-4
-10
-12
-10
-7
-12
-10
-10
-5
-2
-1
-2
-8
-8
-6
-5
-3
-1
-2
0
0
3
3
-1
-1
1
3
4
6
13
18
16
19
17
12
10
12
22
25
26
32
25
32
40
34
30
35
37
41
46
51
50
47
45
51
48
47
52
54
56
63
60
59
51
53
48
50
48
55
53
54
53
45
37
34
37
34
29
28
26
24
24
25
17
14
13
9
8
7
18
15
7
7
4
-3
1
4
-1
-2
0
0
1
-2
-5
-3
-6
-5
-8
-6
3
4
4
3
0
-6
-9
-3
-10
-6
2
6
8
2
-3
-4
-5
-3
-2
0
2
2
3
2
-1
-6
-7
-3
-6
-3
6
6
7
6
4
-1
-3
-3
0
-3
4
6
4
4
0
-3
-2
-3
-3
-1
2
5
3
2
-4
1
-1
-5
-7
4
10
11
7
9
2
-2
1
-2
1
4
4
9
11
8
4
1
0
1
-2
-2
1
6
7
10
7
8
-1
1
1
7
10
8
12
11
7
5
4
2
6
8
7
8
7
8
12
7
-1
4
6
6
8
10
13
13
12
9
3
-2
5
11
11
8
10
14
12
11
12
10
7
6
9
12
17
11
8
12
10
3
6
8
10
13
16
16
11
11
7
7
9
14
19
15
12
12
17
12
8
14
19
12
15
14
15
15
14
14
10
11
10
11
17
17
19
21
12
11
9
11
13
14
17
16
13
15
17
12
7
10
15
15
12
9
10
14
16
14
16
18
18
17
14
19
21
15
21
15
17
14
10
18
25
26
23
26
25
23
23
24
22
24
26
29
28
27
25
27
26
28
25
24
23
28
30
31
29
25
24
29
22
23
26
29
32
35
35
35
30
26
32
26
27
30
34
38
36
34
28
28
33
35
33
35
34
32
35
33
31
29
32
32
32
33
35
36
39
35
37
37
38
41
42
45
50
51
54
54
49
45
47
45
50
56
56
55
52
52
52
56
65
64
62
63
64
61
53
52
52
49
48
47
45
46
43
49
45
43
46
39
42
37
37
38
33
35
36
39
36
35
38
37
37
35
37
41
34
37
39
36
35
30
35
39
41
42
39
42
42
38
40
34
34
36
42
47
43
43
43
43
43
45
38
39
45
44
48
48
45
44
46
43
39
42
43
48
46
48
49
48
45
45
55
57
65
78
96
105
127
158
189
203
207
208
190
164
137
127
114
98
79
58
33
26
19
8
18
20
26
38
46
52
51
51
55
56
52
53
54
51
50
51
57
57
60
55
59
63
56
56
59
58
61
59
58
60
66
58
55
57
56
62
58
58
55
58
61
63
64
58
59
64
64
63
61
57
60
65
67
58
65
66
62
64
61
66
68
70
66
65
66
70
69
71
74
74
71
75
75
73
74
73
77
77
78
82
77
83
74
74
84
89
94
94
97
95
90
95
99
99
99
97
102
103
102
104
107
114
116
113
117
118
119
120
123
125
127
127
127
128
127
126
130
136
131
132
132
132
126
130
133
125
122
125
129
124
121
116
116
115
113
110
106
102
99
95
94
100
96
92
95
90
83
81
80
79
76
80
74
75
75
71
67
75
83
82
74
74
73
78
77
72
69
67
66
64
67
65
70
69
65
64
69
73
76
74
71
71
76
73
74
70
72
74
69
72
79
76
68
68
72
73
74
74
74
76
76
78
73
77
74
74
73
72
75
75
77
74
74
73
73
72
75
71
71
71
74
78
72
74
78
73
72
75
74
74
75
79
79
77
78
76
77
72
72
73
74
74
75
73
75
76
77
76
71
76
77
79
77
77
79
79
76
71
73
72
77
77
76
74
77
75
77
73
74
78
78
75
72
77
73
73
76
80
78
75
77
72
71
76
75
77
80
77
79
76
71
80
79
78
74
76
79
78
75
79
82
81
77
77
77
80
76
75
79
80
83
80
81
80
82
82
85
84
78
75
79
84
87
84
85
84
80
82
84
79
80
80
86
86
84
87
87
85
83
85
82
82
81
84
86
88
87
86
84
88
85
82
87
87
88
89
89
90
90
83
83
86
87
87
87
89
88
86
85
84
87
87
86
87
87
89
91
91
88
84
86
92
91
90
88
92
99
98
97
100
105
110
116
111
107
104
103
102
101
101
103
109
111
114
110
112
117
112
111
108
107
107
104
100
103
103
96
90
88
87
92
92
93
94
87
87
92
95
93
87
85
87
90
86
86
88
89
83
82
85
87
88
88
85
86
87
85
84
88
85
84
84
87
85
84
88
88
88
85
86
82
78
83
87
92
93
86
89
89
87
87
88
90
90
92
92
93
92
90
90
95
100
101
100
95
97
96
95
110
120
131
145
158
183
215
241
256
259
243
222
204
180
162
144
131
114
95
81
68
60
61
65
71
78
87
96
103
104
99
96
98
97
96
97
98
96
97
99
99
96
93
98
97
94
98
97
96
101
97
98
98
99
96
92
95
98
98
97
101
104
103
104
103
103
97
97
102
98
98
97
103
106
105
102
100
104
103
106
107
106
103
102
105
110
106
105
105
109
110
107
113
109
110
111
111
112
111
111
117
115
111
115
117
119
123
120
120
128
126
126
129
127
129
131
130
136
141
143
138
138
142
142
148
147
148
149
150
152
152
155
156
157
159
162
164
161
165
170
167
162
168
166
165
160
161
160
159
158
157
155
146
142
140
139
139
137
137
133
132
129
122
118
121
119
117
113
115
115
114
109
106
104
102
103
98
103
104
102
101
100
105
104
98
97
95
102
105
102
103
102
102
94
95
98
92
93
96
104
103
104
104
96
97
95
95
101
97
100
102
102
97
100
102
98
99
100
99
101
103
103
100
102
102
96
99
100
94
99
103
102
100
101
100
99
99
97
100
97
100
105
105
104
101
99
101
100
103
104
105
107
108
107
103
99
103
105
99
102
105
111
108
105
105
105
104
104
104
105
107
110
109
108
102
100
102
105
103
103
105
105
105
109
108
107
108
111
108
109
107
103
104
108
107
104
107
107
104
109
109
108
106
105
107
109
107
105
103
104
103
106
108
108
106
105
106
109
105
104
98
105
102
96
96
103
112
111
107
108
107
109
106
102
107
107
107
104
106
106
110
107
98
101
107
103
100
100
104
104
104
109
112
111
106
102
105
106
107
103
103
103
105
108
105
106
105
103
101
103
109
107
107
111
114
112
106
105
104
106
110
109
109
108
109
107
112
109
105
103
107
106
109
113
115
117
118
111
110
107
107
110
112
113
109
111
111
109
111
110
109
114
115
110
108
110
110
112
114
114
113
111
116
118
117
113
112
109
119
111
116
119
121
124
122
121
123
126
129
126
130
130
127
130
133
129
130
129
132
134
135
135
136
138
138
135
139
138
134
132
130
128
125
126
124
125
120
117
122
120
120
118
117
117
117
115
112
113
108
108
109
111
111
112
108
112
111
112
115
111
104
106
111
114
112
108
109
107
106
105
111
111
114
118
110
110
108
111
116
114
115
112
111
113
113
109
111
112
114
114
112
117
111
111
119
116
110
118
124
123
125
114
111
115
119
135
148
162
170
171
191
221
250
275
274
274
263
247
222
205
192
170
152
132
115
98
88
87
93
97
102
114
121
121
126
128
126
120
123
126
123
126
121
130
130
124
127
126
128
123
117
121
125
127
126
133
127
125
123
125
138
128
125
129
129
125
129
133
130
129
124
126
126
121
131
130
131
130
131
135
132
130
130
133
133
130
131
129
130
132
132
137
138
133
136
132
137
142
145
137
134
135
136
139
136
144
139
142
151
148
143
141
144
137
144
153
152
156
162
155
154
157
159
157
157
162
165
171
171
174
172
175
168
171
175
180
179
180
184
185
182
181
186
183
182
185
193
192
191
194
191
189
180
177
180
177
181
181
178
176
170
166
165
154
155
153
150
152
154
152
144
142
131
136
139
125
129
135
142
140
135
132
131
127
126
128
128
129
129
130
127
118
119
119
118
124
122
122
124
121
128
118
115
115
117
121
122
125
124
119
123
120
116
115
113
117
120
123
115
117
123
123
118
120
117
115
120
117
119
117
117
115
114
112
112
118
121
116
112
121
120
118
123
120
117
115
123
126
127
125
121
119
114
117
117
121
117
114
123
122
124
124
124
120
125
120
120
119
119
121
119
121
122
116
114
118
117
120
123
120
116
114
117
121
116
114
119
124
123
122
120
113
110
112
117
123
118
116
119
119
122
119
121
117
114
118
119
120
117
119
119
119
121
119
112
109
117
121
115
112
123
121
114
119
119
115
118
118
118
115
121
122
120
120
117
117
115
118
117
122
121
116
115
111
111
115
122
117
118
119
120
118
119
113
115
115
115
115
115
118
119
122
119
119
111
115
115
112
117
118
116
120
117
121
125
115
111
117
121
119
124
117
117
118
115
114
118
114
116
123
126
124
125
124
128
125
126
127
133
131
128
128
137
137
130
128
133
133
135
135
137
138
144
143
142
138
137
134
138
137
139
131
126
123
128
124
123
120
117
123
124
120
119
114
121
120
118
114
115
116
115
118
117
109
115
115
117
114
113
112
117
117
114
115
115
109
116
112
110
114
119
115
116
111
107
113
115
114
116
112
117
122
117
113
115
115
113
112
111
119
119
120
118
117
114
110
111
115
115
117
122
120
118
111
110
116
124
134
146
158
171
196
226
256
276
281
280
260
235
213
205
191
175
154
134
109
91
81
85
97
100
101
107
110
117
121
125
123
117
122
124
125
126
119
121
121
118
117
121
121
121
130
127
127
122
122
121
121
123
123
122
123
129
123
119
119
123
122
122
125
127
122
121
122
128
123
125
125
126
124
122
125
126
127
130
127
124
124
129
132
131
125
132
130
125
127
127
127
130
130
132
133
135
133
132
135
134
134
138
137
142
139
141
141
139
145
149
147
150
147
153
153
154
154
155
154
156
158
164
162
160
168
170
171
168
164
166
174
177
174
175
176
174
176
185
180
181
182
179
181
182
179
180
173
172
168
171
169
168
168
162
160
161
156
151
147
145
140
142
140
141
137
137
140
138
132
127
131
130
128
129
127
124
122
124
120
120
123
122
119
125
122
126
126
123
115
114
117
117
116
120
120
118
117
120
116
114
114
115
118
117
119
119
122
117
115
115
111
111
113
118
120
118
118
116
119
119
116
116
115
121
111
116
119
122
117
114
111
111
113
118
119
119
118
118
116
114
113
109
111
112
113
118
120
119
112
112
108
113
111
112
112
117
116
121
121
112
110
112
111
114
115
116
115
114
115
114
112
110
108
104
111
119
113
116
120
117
110
110
113
112
110
111
120
119
116
114
112
108
108
111
105
111
115
118
119
116
110
111
109
110
109
113
118
116
108
111
112
108
108
114
115
115
105
102
111
115
112
106
108
106
113
116
115
113
107
110
109
108
102
106
109
108
111
113
116
114
111
111
111
111
110
108
109
108
112
112
109
107
109
115
108
108
109
112
111
110
110
111
111
110
109
106
102
113
117
117
115
114
111
117
117
119
118
120
123
128
130
131
128
125
121
122
129
126
125
131
128
127
129
131
135
141
135
132
130
128
127
128
124
123
123
115
108
113
113
120
114
114
111
111
109
111
113
112
111
109
101
105
106
105
100
101
98
104
105
107
104
103
104
109
107
106
107
104
105
102
108
107
101
99
101
102
109
108
101
105
107
103
103
103
104
101
98
98
102
104
103
102
100
100
100
108
110
104
104
110
107
111
107
103
98
106
104
109
117
130
142
152
163
186
218
249
262
269
262
245
227
205
186
172
156
136
114
91
77
69
72
78
84
85
92
106
109
112
113
115
113
113
108
110
111
111
104
112
110
114
114
111
114
113
110
108
111
116
110
110
111
114
113
111
112
117
117
121
115
115
113
116
110
113
116
115
118
114
114
117
118
120
114
116
121
118
117
122
118
120
119
119
117
114
124
124
123
124
123
122
120
122
119
117
119
129
124
128
130
136
129
129
129
130
135
138
136
129
129
140
146
141
136
142
144
147
149
150
150
150
150
166
167
163
159
166
164
166
165
166
171
170
171
164
174
176
173
171
170
174
167
171
173
171
167
165
159
162
165
163
163
157
153
146
145
146
144
143
137
135
137
132
130
128
129
123
118
117
120
118
121
119
111
111
113
112
109
111
111
117
115
113
115
108
108
113
114
105
103
104
107
108
108
115
116
109
105
109
108
104
103
108
106
108
110
109
109
109
106
108
108
111
105
107
102
113
110
110
108
105
107
109
108
110
106
111
114
110
112
109
111
111
109
109
108
111
109
109
109
110
108
110
109
108
111
111
110
106
114
114
111
109
109
111
111
109
109
110
106
108
110
106
105
108
107
109
108
105
105
106
104
108
107
108
109
108
107
108
101
101
105
106
107
106
105
107
106
105
104
108
105
105
106
104
105
105
108
107
103
105
102
104
102
106
102
101
100
102
104
105
99
105
104
100
102
102
100
100
102
99
99
98
97
98
100
99
99
98
99
98
97
100
102
105
102
106
101
99
98
98
102
101
101
103
106
107
103
100
100
103
101
98
100
101
102
99
98
99
101
98
96
100
98
97
102
98
103
100
97
101
100
101
103
105
105
104
100
106
110
118
116
119
117
117
115
114
115
115
116
119
120
117
117
121
121
123
124
125
121
124
125
124
119
116
115
113
108
107
108
105
106
109
106
106
100
103
99
99
99
97
99
98
96
92
94
90
86
87
93
93
94
97
97
97
100
94
91
96
97
97
94
94
94
96
90
90
95
95
95
98
97
96
95
98
100
96
95
92
90
95
97
93
97
99
100
95
97
102
98
101
97
100
97
100
106
101
100
103
101
93
95
105
109
120
133
145
153
171
200
231
254
263
267
254
228
196
186
176
163
147
118
95
69
52
60
74
77
80
84
92
97
102
102
105
105
105
101
103
103
102
102
107
110
110
107
103
101
99
102
108
105
103
103
107
108
102
102
104
100
103
106
110
107
109
109
106
105
103
103
108
109
108
106
110
113
110
109
109
111
111
107
111
112
105
106
110
112
112
111
110
111
113
114
119
120
117
115
114
115
117
114
122
120
120
121
121
119
122
125
124
124
128
131
134
133
134
132
135
132
135
139
146
148
149
148
150
147
153
150
147
152
152
157
165
165
162
160
159
157
158
158
164
168
163
166
168
163
160
156
154
156
157
154
156
153
148
144
141
138
140
135
132
128
130
127
124
122
121
118
116
116
116
115
114
114
110
106
108
106
107
101
101
103
107
106
103
103
101
99
103
103
100
102
105
104
103
100
99
98
100
101
101
105
104
102
102
100
102
100
99
102
101
101
104
106
105
104
101
100
99
106
104
98
103
102
102
97
96
102
105
107
106
104
107
107
106
101
105
103
103
106
106
105
106
110
106
102
102
105
106
103
103
105
107
109
107
101
101
103
104
107
102
105
107
106
104
106
102
100
103
102
102
103
103
100
107
105
98
104
103
101
108
108
107
106
105
104
102
102
105
104
106
107
106
106
104
102
103
102
102
103
108
110
105
104
103
101
98
97
97
105
106
105
107
109
106
103
103
102
103
104
104
103
104
105
105
103
102
102
105
107
111
104
101
103
103
103
104
102
100
108
106
105
106
104
104
102
101
99
104
105
107
102
104
107
103
100
104
106
110
106
112
116
116
116
118
120
118
117
122
121
116
117
118
117
116
118
119
120
117
128
129
129
130
128
120
119
118
118
115
115
110
107
111
115
106
101
101
104
106
105
103
106
108
99
99
102
104
98
98
99
101
99
101
100
98
95
97
99
98
95
99
100
97
99
100
97
98
95
98
96
93
98
102
103
97
92
91
96
94
95
98
100
100
100
96
96
96
97
97
99
98
99
101
103
97
98
100
105
104
107
105
99
102
105
109
115
124
140
152
163
185
215
247
258
268
269
246
222
196
183
170
154
140
109
91
73
61
61
68
76
79
86
96
100
101
101
107
106
103
106
106
110
108
106
105
106
100
98
103
106
101
99
108
110
106
104
104
104
103
104
105
107
109
107
106
107
106
108
109
98
101
105
104
108
115
113
109
109
107
106
107
114
111
111
114
109
107
108
113
115
113
114
116
115
115
115
116
116
112
114
119
120
122
121
122
122
120
124
126
125
123
124
130
132
132
134
134
128
132
135
138
141
145
149
147
149
150
150
151
152
151
156
161
162
159
160
161
163
163
158
165
170
168
172
164
172
165
163
165
164
167
164
164
164
161
158
155
150
147
142
140
137
140
138
134
134
128
127
125
124
121
121
121
117
117
109
111
117
112
107
108
111
109
107
105
107
105
99
102
102
100
101
103
107
107
105
103
101
104
100
97
99
101
105
107
102
100
102
103
108
99
98
103
105
101
99
93
93
100
103
101
102
104
105
102
106
104
100
95
95
104
103
106
105
103
103
97
99
95
97
100
103
101
99
101
101
98
98
97
99
95
99
104
104
100
102
97
95
98
92
92
96
99
101
102
99
97
97
95
95
97
99
102
100
97
102
100
96
93
97
98
97
98
99
93
101
97
96
96
100
99
97
97
99
97
98
97
94
95
96
97
96
96
91
91
97
101
100
99
98
94
96
100
100
96
95
94
100
97
98
93
93
90
95
100
101
101
103
101
98
96
96
95
95
95
93
97
96
97
95
92
95
95
95
96
97
97
98
99
100
95
94
99
102
94
91
98
103
104
99
97
97
100
99
98
96
97
99
100
99
96
96
101
100
94
95
99
99
97
95
95
95
93
98
92
91
89
96
97
97
97
99
98
99
97
94
96
98
97
99
101
99
99
102
106
109
113
116
116
114
118
117
115
113
112
113
111
112
116
114
117
122
115
121
119
117
117
115
112
112
111
105
103
103
104
101
99
93
94
104
102
101
98
95
96
95
94
94
91
92
91
91
92
92
90
89
87
89
89
90
91
89
86
81
83
85
88
91
91
92
90
89
90
88
87
85
84
87
86
89
88
85
88
86
87
91
91
91
87
93
87
87
90
93
89
88
89
90
94
94
97
98
94
86
88
97
102
113
127
137
143
158
185
218
239
247
247
236
219
199
178
160
138
122
107
88
70
58
54
59
62
68
75
85
92
97
96
95
98
97
96
93
95
96
92
96
93
88
94
98
95
94
94
95
96
96
96
95
94
93
94
95
92
93
91
91
95
91
93
97
99
96
94
93
93
93
97
97
93
98
94
97
90
91
93
97
94
95
103
104
105
103
101
99
98
99
102
104
106
101
103
104
103
109
108
105
107
107
106
106
109
112
113
109
113
116
118
121
123
125
128
130
127
126
130
133
131
132
137
139
137
136
142
145
141
145
148
153
155
153
150
151
154
158
155
152
151
157
154
158
157
154
154
155
151
143
145
148
144
139
139
137
129
123
122
124
123
124
121
116
113
107
112
113
110
105
105
103
101
100
99
99
100
96
95
97
93
93
95
97
95
91
89
94
95
91
86
92
94
92
90
91
95
88
90
94
88
85
87
89
90
96
93
89
88
88
87
86
86
87
91
94
91
84
90
87
83
87
88
91
90
86
87
91
90
86
87
88
87
87
87
86
82
84
89
90
89
88
87
86
91
92
86
88
91
84
83
90
87
91
87
92
92
88
87
87
85
83
78
87
90
89
89
87
86
84
86
85
78
84
93
90
90
92
85
86
85
89
85
90
88
88
88
88
87
86
87
88
84
83
86
86
90
87
84
85
85
86
85
85
85
84
79
81
79
81
81
85
85
93
87
83
83
87
85
85
86
86
84
85
86
87
87
85
85
85
86
85
82
87
85
87
86
83
82
79
81
84
86
86
78
82
86
83
84
88
85
83
81
86
87
82
83
81
82
86
82
80
83
86
87
89
87
89
89
85
84
86
85
81
82
85
86
87
82
84
82
84
86
86
84
82
80
81
88
88
87
86
85
81
84
86
86
87
85
83
82
83
85
82
80
85
84
82
78
85
86
86
85
83
86
86
84
88
87
87
87
85
81
94
95
93
94
94
99
98
99
104
103
100
93
94
98
101
105
103
108
103
105
112
107
111
108
108
106
109
103
98
89
87
96
97
98
95
91
87
87
82
83
82
82
81
84
84
81
76
79
83
82
82
80
78
77
81
77
78
81
80
75
79
80
83
84
81
75
76
81
82
80
80
81
83
84
86
86
79
78
79
80
83
85
80
82
86
82
81
83
83
82
85
85
85
86
86
85
87
81
82
86
83
79
80
82
90
102
114
123
134
150
180
210
235
250
254
238
212
183
170
158
143
127
104
86
66
50
46
50
58
63
67
74
86
89
92
93
91
88
85
85
86
90
90
92
91
90
92
88
87
87
87
91
93
90
91
90
88
90
86
89
95
90
86
86
94
93
95
96
95
95
91
93
99
95
93
95
92
93
95
92
94
91
94
95
95
96
95
95
95
99
98
100
100
102
101
99
101
99
101
103
104
103
104
103
107
104
105
108
106
108
112
111
115
116
117
115
115
116
119
119
121
123
127
129
128
130
136
136
136
132
134
134
132
141
144
143
144
145
148
147
150
146
151
152
155
153
155
153
146
144
146
143
150
145
147
147
144
139
136
129
131
129
128
128
128
123
120
115
112
107
111
106
111
114
109
105
107
102
101
98
101
97
95
97
100
97
100
100
99
94
90
90
91
94
97
97
98
94
96
94
93
92
93
93
94
94
96
97
98
93
91
90
94
96
96
91
96
95
96
94
95
93
92
95
100
96
96
94
98
94
94
94
96
92
95
95
96
91
92
92
95
95
95
93
94
95
97
96
95
95
91
88
87
92
92
93
96
91
92
92
95
95
92
90
92
89
93
95
98
91
87
89
89
91
90
89
89
87
87
87
93
92
93
93
93
92
91
92
94
92
87
88
90
89
86
90
94
92
92
92
88
86
87
87
90
0
0
0
0
0
0
0
0
0
0
0
0
0
0
0
0
0
0
0
0
0
0
0
0
0
0
0
0
0
0
0
0
0
0
0
0
0
0
0
0
0
0
0
0
0
0
0
0
0
0
0
0
0
0
0
0
0
0
0
0
0
0
0
0
0
0
0
0
0
0
0
0
0
0
0
0
0
0
0
0
0
0
0
0
0
0
0
0
0
0
0
0
0
0
0
0
0
0
0
0
0
0
0
0
0
0
0
0
0
0
0
0
0
0
0
0
0
0
0
0
0
0
0
0
0
0
0
0
0
0
0
0
0
0
0
0
0
0
0
0
0
0
0
0
0
0
0
0
0
0
0
0
0
0
0
0
0
0
0
0
0
0
0
0
0
0
0
0
0
0
0
0
0
0
0
0
0
0
0
0
0
0
0
0
0
0
0
0
0
0
0
0
0
0
0
0
0
0
0
0
0
0
0
0
0
0
0
0
0
0
0
0
0
0
0
0
0
0
0
0
0
0
0
0
0
0
0
0
0
0
0
0
0
0
0
0
0
0
0
0
0
0
0
0
0
0
0
0
0
0
0
0
0
0
0
0
0
0
0
0
0
0
0
0
0
0
0
0
0
0
0
0
0
0
0
0
0
0
0
0
0
0
0
0
0
0
0
0
0
0
0
0
0
0
0
0
0
0
0
0
0
0
0
0
0
0
0
0
0
0
0
0
0
0
0
0
0
0
0
0
0
0
0
0
0
0
0
0
0
0
0
0
0
0
0
0
0
0
0
0
0
0
0
0
0
0
0
0
0
0
0
0
0
0
0
0
0
0
0
0
0
0
0
0
0
0
0
0
0
0
0
0
0
0
0
0
0
0
0
0
0
0
0
0
0
0
0
0
0
0
0
0
0
0
0
0
0
0
0
0
0
0
0
0
0
0
0
0
0
0
0
0
0
0
0
0
0
0
0
0
0
0
0
0
0
0
0
0
0
0
0
0
0
0
0
0
0
0
0
0
0
0
0
0
0
0
0
0
0
0
0
0
0
0
0
0
0
0
0
0
0
0
0
0
0
0
0
0
0
0
0
0
0
0
0
0
0
0
0
0
0
0
0
0
0
0
0
0
0
0
0
0
0
0
0
0
0
0
0
0
0
0
0
0
0
0
0
0
0
0
0
0
0
0
0
0
0
0
0
0
0
0
0
0
0
0
0
0
0
0
0
0
0
0
0
0
0
0
0
0
0
0
0
0
0
0
0
0
0
0
0
0
0
0
0
0
0
0
0
0
0
0
0
0
0
0
0
0
0
0
0
0
0
0
0
0
0
0
0
0
0
0
0
0
0
0
0
0
0
0
0
0
0
0
0
0
0
0
0
0
0
0
0
0
0
0
0
0
0
0
0
0
0
0
0
0
0
0
0
0
0
0
0
0
0
0
0
0
0
0
0
0
0
0
0
0
0
0
0
0
0
0
0
0
0
0
0
0
0
0
0
0
0
0
0
0
0
0
0
0
0
0
0
0
0
0
0
0
0
0
0
0
0
0
0
0
0
0
0
0
0
0
0
0
0
0
0
0
0
0
0
0
0
0
0
0
0
0
0
0
0
0
0
0
0
0
0
0
0
0
0
0
0
0
0
0
0
0
0
0
0
0
0
0
0
0
0
0
0
0
0
0
0
0
0
0
0
0
0
0
0
0
0
0
0
0
0
0
0
0
0
0
0
0
0
0
0
0
0
0
0
0
0
0
0
0
0
0
0
0
0
0
0
0
0
0
0
0
0
0
0
0
0
0
0
0
0
0
0
0
0
0
0
0
0
0
0
0
0
0
0
0
0
0
0
0
0
0
0
0
0
0
0
0
0
0
0
0
0
0
0
0
0
0
0
0
0
0
0
0
0
0
0
0
0
0
0
0
0
0
0
0
0
0
0
0
0
0
0
0
0
0
0
0
0
0
0
0
0
0
0
0
0
0
0
0
0
0
0
0
0
0
0
0
0
0
0
0
0
0
0
0
0
0
0
0
0
0
0
0
0
0
0
0
0
0
0
0
0
0
0
0
0
0
0
0
0
0
0
0
0
0
0
0
0
0
0
0
0
0
0
0
0
0
0
0
0
0
0
0
0
0
0
0
0
0
0
0
0
0
0
0
0
0
0
0
0
0
0
0
0
0
0
0
0
0
0
0
0
0
0
0
0
0
0
0
0
0
0
0
0
0
0
0
0
0
0
0
0
0
0
0
0
0
0
0
0
0
0
0
0
0
0
0
0
0
0
0
0
0
0
0
0
0
0
0
0
0
0
0
0
0
0
0
0
0
0
0
0
0
0
0
0
0
0
0
0
0
0
0
0
0
0
0
0
0
0
0
0
0
0
0
0
0
0
0
0
0
0
0
0
0
0
0
0
0
0
0
0
0
0
0
0
0
0
0
0
0
0
0
0
0
0
0
0
0
0
0
0
0
0
0
0
0
0
0
0
0
0
0
0
0
0
0
0
0
0
0
0
0
0
0
0
0
0
0
0
0
0
0
0
0
0
0
0
0
0
0
0
0
0
0
0
0
0
0
0
0
0
0
0
0
0
0
0
0
0
0
0
0
0
0
0
0
0
0
0
0
0
0
0
0
0
0
0
0
0
0
0
0
0
0
0
0
0
0
0
0
0
0
0
0
0
0
0
0
0
0
0
0
0
0
0
0
0
0
0
0
0
0
0
0
0
0
0
0
0
0
0
0
0
0
0
0
0
0
0
0
0
0
0
0
0
0
0
0
0
0
0
0
0
0
0
0
0
0
0
0
0
0
0
0
0
0
0
0
0
0
0
0
0
0
0
0
0
0
0
0
0
0
0
0
0
0
0
0
0
0
0
0
0
0
0
0
0
0
0
0
0
0
0
0
0
0
0
0
0
0
0
0
0
0
0
0
0
0
0
0
0
0
0
0
0
0
0
0
0
0
0
0
0
0
0
0
0
0
0
0
0
0
0
0
0
0
0
0
0
0
0
0
0
0
0
0
0
0
0
0
0
0
0
0
0
0
0
0
0
0
0
0
0
0
0
0
0
0
0
0
0
0
0
0
0
0
0
0
0
0
0
0
0
0
0
0
0
0
0
0
0
0
0
0
0
0
0
0
0
0
0
0
0
0
0
0
0
0
0
0
0
0
0
0
0
0
0
0
0
0
0
0
0
0
0
0
0
0
0
0
0
0
0
0
0
0
0
0
0
0
0
0
0
0
0
0
0
0
0
0
0
0
0
0
0
0
0
0
0
0
0
0
0
0
0
0
0
0
0
0
0
0
0
0
0
0
0
0
0
0
0
0
0
0
0
0
0
0
0
0
0
0
0
0
0
0
0
0
0
0
0
0
0
0
0
0
0
0
0
0
0
0
0
0
0
0
0
0
0
0
0
0
0
0
0
0
0
0
0
0
0
0
0
0
0
0
0
0
0
0
0
0
0
0
0
0
0
0
0
0
0
0
0
0
0
0
0
0
0
0
0
0
0
0
0
0
0
0
0
0
0
0
0
0
0
0
0
0
0
0
0
0
0
0
0
0
0
0
0
0
0
0
0
0
0
0
0
0
0
0
0
0
0
0
0
0
0
0
0
0
0
0
0
0
0
0
0
0
0
0
0
0
0
0
0
0
0
0
0
0
0
0
0
0
0
0
0
0
0
0
0
0
0
0
0
0
0
0
0
0
0
0
0
0
0
0
0
0
0
0
0
0
0
0
0
0
0
0
0
0
0
0
0
0
0
0
0
0
0
0
0
0
0
0
0
0
0
0
0
0
0
0
0
0
0
0
0
0
0
0
0
0
0
0
0
0
0
0
0
0
0
0
0
0
0
0
0
0
0
0
0
0
0
0
0
0
0
0
0
0
0
0
0
0
0
0
0
0
0
0
0
0
0
0
0
0
0
0
0
0
0
0
0
0
0
0
0
0
0
0
0
0
0
0
0
0
0
0
0
0
0
0
0
0
0
0
0
0
0
0
0
0
0
0
0
0
0
0
0
0
0
0
0
0
0
0
0
0
0
0
0
0
0
0
0
0
0
0
0
0
0
0
0
0
0
0
0
0
0
0
0
0
0
0
0
0
0
0
0
0
0
0
0
0
0
0
0
0
0
0
0
0
0
0
0
0
0
0
0
0
0
0
0
0
0
0
0
0
0
0
0
0
0
0
0
0
0
0
0
0
0
0
0
0
0
0
0
0
0
0
0
0
0
0
0
0
0
0
0
0
0
0
0
0
0
0
0
0
0
0
0
0
0
0
0
0
0
0
0
0
0
0
0
0
0
0
0
0
0
0
0
0
0
0
0
0
0
0
0
0
0
0
0
0
0
0
0
0
0
0
0
0
0
0
0
0
0
0
0
0
0
0
0
0
0
0
0
0
0
0
0
0
0
0
0
0
0
0
0
0
0
0
0
0
0
0
0
0
0
0
0
0
0
0
0
0
0
0
0
0
0
0
0
0
0
0
0
0
0
0
0
0
0
0
0
0
0
0
0
0
0
0
0
0
0
0
0
0
0
0
0
0
0
0
0
0
0
0
0
0
0
0
0
0
0
0
0
0
0
0
0
0
0
0
0
0
0
0
0
0
0
0
0
0
0
0
0
0
0
0
0
0
0
0
0
0
0
0
0
0
0
0
0
0
0
0
0
0
0
0
0
0
0
0
0
0
0
0
0
0
0
0
0
0
0
0
0
0
0
0
0
0
0
0
0
0
0
0
0
0
0
0
0
0
0
0
0
0
0
0
0
0
0
0
0
0
0
0
0
0
0
0
0
0
0
0
0
0
0
0
0
0
0
0
0
0
0
0
0
0
0
0
0
0
0
0
0
0
0
0
0
0
0
0
0
0
0
0
0
0
0
0
0
0
0
0
0
0
0
0
0
0
0
0
0
0
0
0
0
0
0
0
0
0
0
0
0
0
0
0
0
0
0
0
0
0
0
0
0
0
0
0
0
0
0
0
0
0
0
0
0
0
0
0
0
0
0
0
0
0
0
0
0
0
0
0
0
0
0
0
0
0
0
0
0
0
0
0
0
0
0
0
0
0
0
0
0
0
0
0
0
0
0
0
0
0
0
0
0
0
0
0
0
0
0
0
0
0
0
0
0
0
0
0
0
0
0
0
0
0
0
0
0
0
0
0
0
0
0
0
0
0
0
0
0
0
0
0
0
0
0
0
0
0
0
0
0
0
0
0
0
0
0
0
0
0
0
0
0
0
0
0
0
0
0
0
0
0
0
0
0
0
0
0
0
0
0
0
0
0
0
0
0
0
0
0
0
0
0
0
0
0
0
0
0
0
0
0
0
0
0
0
0
0
0
0
0
0
0
0
0
0
0
0
0
0
0
0
0
0
0
0
0
0
0
0
0
0
0
0
0
0
0
0
0
0
0
0
0
0
0
0
0
0
0
0
0
0
0
0
0
0
0
0
0
0
0
0
0
0
0
0
0
0
0
0
0
0
0
0
0
0
0
0
0
0
0
0
0
0
0
0
0
0
0
0
0
0
0
0
0
0
0
0
0
0
0
0
0
0
0
0
0
0
0
0
0
0
0
0
0
0
0
0
0
0
0
0
0
0
0
0
0
0
0
0
0
0
0
0
0
0
0
0
0
0
0
0
0
0
0
0
0
0
0
0
0
0
0
0
0
0
0
0
0
0
0
0
0
0
0
0
0
0
0
0
0
0
0
0
0
0
0
0
0
0
0
0
0
0
0
0
0
0
0
0
0
0
0
0
0
0
0
0
0
0
0
0
0
0
0
0
0
0
0
0
0
0
0
0
0
0
0
0
0
0
0
0
0
0
0
0
0
0
0
0
0
0
0
0
0
0
0
0
0
0
0
0
0
0
0
0
0
0
0
0
0
0
0
0
0
0
0
0
0
0
0
0
0
0
0
0
0
0
0
0
0
0
0
0
0
0
0
0
0
0
0
0
0
0
0
0
0
0
0
0
0
0
0
0
0
0
0
0
0
0
0
0
0
0
0
0
0
0
0
0
0
0
0
0
0
0
0
0
0
0
0
0
0
0
0
0
0
0
0
0
0
0
0
0
0
0
0
0
0
0
0
0
0
0
0
0
0
0
0
0
0
0
0
0
0
0
0
0
0
0
0
0
0
0
0
0
0
0
0
0
0
0
0
0
0
0
0
0
0
0
0
0
0
0
0
0
0
0
0
0
0
0
0
0
0
0
0
0
0
0
0
0
0
0
0
0
0
0
0
0
0
0
0
0
0
0
0
0
0
0
0
0
0
0
0
0
0
0
0
0
0
0
0
0
0
0
0
0
0
0
0
0
0
0
0
0
0
0
0
0
0
0
0
0
0
0
0
0
0
0
0
0
0
0
0
0
0
0
0
0
0
0
0
0
0
0
0
0
0
0
0
0
0
0
0
0
0
0
0
0
0
0
0
0
0
0
0
0
0
0
0
0
0
0
0
0
0
0
0
0
0
0
0
0
0
0
0
0
0
0
0
0
0
0
0
0
0
0
0
0
0
0
0
0
0
0
0
0
0
0
0
0
0
0
0
0
0
0
0
0
0
0
0
0
0
0
0
0
0
0
0
0
0
0
0
0
0
0
0
0
0
0
0
0
0
0
0
0
0
0
0
0
0
0
0
0
0
0
0
0
0
0
0
0
0
0
0
0
0
0
0
0
0
0
0
0
0
0
0
0
0
0
0
0
0
0
0
0
0
0
0
0
0
0
0
0
0
0
0
0
0
0
0
0
0
0
0
0
0
0
0
0
0
0
0
0
0
0
0
0
0
0
0
0
0
0
0
0
0
0
0
0
0
0
0
0
0
0
0
0
0
0
0
0
0
0
0
0
0
0
0
0
0
0
0
0
0
0
0
0
0
0
0
0
0
0
0
0
0
0
0
0
0
0
0
0
0
0
0
0
0
0
0
0
0
0
0
0
0
0
0
0
0
0
0
0
0
0
0
0
0
0
0
0
0
0
0
0
0
0
0
0
0
0
0
0
0
0
0
0
0
0
0
0
0
0
0
0
0
0
0
0
0
0
0
0
0
0
0
0
0
0
0
0
0
0
0
0
0
0
0
0
0
0
0
0
0
0
0
0
0
0
0
0
0
0
0
0
0
0
0
0
0
0
0
0
0
0
0
0
0
0
0
0
0
0
0
0
0
0
0
0
0
0
0
0
0
0
0
0
0
0
0
0
0
0
0
0
0
0
0
0
0
0
0
0
0
0
0
0
0
0
0
0
0
0
0
0
0
0
0
0
0
0
0
0
0
0
0
0
0
0
0
0
0
0
0
0
0
0
0
0
0
0
0
0
0
0
0
0
0
0
0
0
0
0
0
0
0
0
0
0
0
0
0
0
0
0
0
0
0
0
0
0
0
0
0
0
0
0
0
0
0
0
0
0
0
0
0
0
0
0
0
0
0
0
0
0
0
0
0
0
0
0
0
0
0
0
0
0
0
0
0
0
0
0
0
0
0
0
0
0
0
0
0
0
0
0
0
0
0
0
0
0
0
0
0
0
0
0
0
0
0
0
0
0
0
0
0
0
0
0
0
0
0
0
0
0
0
0
0
0
0
0
0
0
0
0
0
0
0
0
0
0
0
0
0
0
0
0
0
0
0
0
0
0
0
0
0
0
0
0
0
0
0
0
0
0
0
0
0
0
0
0
0
0
0
0
0
0
0
0
0
0
0
0
0
0
0
0
0
0
0
0
0
0
0
0
0
0
0
0
0
0
0
0
0
0
0
0
0
0
0
0
0
0
0
0
0
0
0
0
0
0
0
0
0
0
0
0
0
0
0
0
0
0
0
0
0
0
0
0
0
0
0
0
0
0
0
0
0
0
0
0
0
0
0
0
0
0
0
0
0
0
0
0
0
0
0
0
0
0
0
0
0
0
0
0
0
0
0
0
0
0
0
0
0
0
0
0
0
0
0
0
0
0
0
0
0
0
0
0
0
0
0
0
0
0
0
0
0
0
0
0
0
0
0
0
0
0
0
0
0
0
0
0
0
0
0
0
0
0
0
0
0
0
0
0
0
0
0
0
0
0
0
0
0
0
0
0
0
0
0
0
0
0
0
0
0
0
0
0
0
0
0
0
0
0
0
0
0
0
0
0
0
0
0
0
0
0
0
0
0
0
0
0
0
0
0
0
0
0
0
0
0
0
0
0
0
0
0
0
0
0
0
0
0
0
0
0
0
0
0
0
0
0
0
0
0
0
0
0
0
0
0
0
0
0
0
0
0
0
0
0
0
0
0
0
0
0
0
0
0
0
0
0
0
0
0
0
0
0
0
0
0
0
0
0
0
0
0
0
0
0
0
0
0
0
0
0
0
0
0
0
0
0
0
0
0
0
0
0
0
0
0
0
0
0
0
0
0
0
0
0
0
0
0
0
0
0
0
0
0
0
0
0
0
0
0
0
0
0
0
0
0
0
0
0
0
0
0
0
0
0
0
0
0
0
0
0
0
0
0
0
0
0
0
0
0
0
0
0
0
0
0
0
0
0
0
0
0
0
0
0
0
0
0
0
0
0
0
0
0
0
0
0
0
0
0
0
0
0
0
0
0
0
0
0
0
0
0
0
0
0
0
0
0
0
0
0
0
0
0
0
0
0
0
0
0
0
0
0
0
0
0
0
0
0
0
0
0
0
0
0
0
0
0
0
0
0
0
0
0
0
0
0
0
0
0
0
0
0
0
0
0
0
0
0
0
0
0
0
0
0
0
0
0
0
0
0
0
0
0
0
0
0
0
0
0
0
0
0
0
0
0
0
0
0
0
0
0
0
0
0
0
0
0
0
0
0
0
0
0
0
0
0
0
0
0
0
0
0
0
0
0
0
0
0
0
0
0
0
0
0
0
0
0
0
0
0
0
0
0
0
0
0
0
0
0
0
0
0
0
0
0
0
0
0
0
0
0
0
0
0
0
0
0
0
0
0
0
0
0
0
0
0
0
0
0
0
0
0
0
0
0
0
0
0
0
0
0
0
0
0
0
0
0
0
0
0
0
0
0
0
0
0
0
0
0
0
0
0
0
0
0
0
0
0
0
0
0
0
0
0
0
0
0
0
0
0
0
0
0
0
0
0
0
0
0
0
0
0
0
0
0
0
0
0
0
0
0
0
0
0
0
0
0
0
0
0
0
0
0
0
0
0
0
0
0
0
0
0
0
0
0
0
0
0
0
0
0
0
0
0
0
0
0
0
0
0
0
0
0
0
0
0
0
0
0
0
0
0
0
0
0
0
0
0
0
0
0
0
0
0
0
0
0
0
0
0
0
0
0
0
0
0
0
0
0
0
0
0
0
0
0
0
0
0
0
0
0
0
0
0
0
0
0
0
0
0
0
0
0
0
0
0
0
0
0
0
0
0
0
0
0
0
0
0
0
0
0
0
0
0
0
0
0
0
0
0
0
0
0
0
0
0
0
0
0
0
0
0
0
0
0
0
0
0
0
0
0
0
0
0
0
0
0
0
0
0
0
0
0
0
0
0
0
0
0
0
0
0
0
0
0
0
0
0
0
0
0
0
0
0
0
0
0
0
0
0
0
0
0
0
0
0
0
0
0
0
0
0
0
0
0
0
0
0
0
0
0
0
0
0
0
0
0
0
0
0
0
0
0
0
0
0
0
0
0
0
0
0
0
0
0
0
0
0
0
0
0
0
0
0
0
0
0
0
0
0
0
0
0
0
0
0
0
0
0
0
0
0
0
0
0
0
0
0
0
0
0
0
0
0
0
0
0
0
0
0
0
0
0
0
0
0
0
0
0
0
0
0
0
0
0
0
0
0
0
0
0
0
0
0
0
0
0
0
0
0
0
0
0
0
0
0
0
0
0
0
0
0
0
0
0
0
0
0
0
0
0
0
0
0
0
0
0
0
0
0
0
0
0
0
0
0
0
0
0
0
0
0
0
0
0
0
0
0
0
0
0
0
0
0
0
0
0
0
0
0
0
0
0
0
0
0
0
0
0
0
0
0
0
0
0
0
0
0
0
0
0
0
0
0
0
0
0
0
0
0
0
0
0
0
0
0
0
0
0
0
0
0
0
0
0
0
0
0
0
0
0
0
0
0
0
0
0
0
0
0
0
0
0
0
0
0
0
0
0
0
0
0
0
0
0
0
0
0
0
0
0
0
0
0
0
0
0
0
0
0
0
0
0
0
0
0
0
0
0
0
0
0
0
0
0
0
0
0
0
0
0
0
0
0
0
0
0
0
0
0
0
0
0
0
0
0
0
0
0
0
0
0
0
0
0
0
0
0
0
0
0
0
0
0
0
0
0
0
0
0
0
0
0
0
0
0
0
0
0
0
0
0
0
0
0
0
0
0
0
0
0
0
0
0
0
0
0
0
0
0
0
0
0
0
0
0
0
0
0
0
0
0
0
0
0
0
0
0
0
0
0
0
0
0
0
0
0
0
0
0
0
0
0
0
0
0
0
0
0
0
0
0
0
0
0
0
0
0
0
0
0
0
0
0
0
0
0
0
0
0
0
0
0
0
0
0
0
0
0
0
0
0
0
0
0
0
0
0
0
0
0
0
0
0
0
0
0
0
0
0
0
0
0
0
0
0
0
0
0
0
0
0
0
0
0
0
0
0
0
0
0
0
0
0
0
0
0
0
0
0
0
0
0
0
0
0
0
0
0
0
0
0
0
0
0
0
0
0
0
0
0
0
0
0
0
0
0
0
0
0
0
0
0
0
0
0
0
0
0
0
0
0
0
0
0
0
0
0
0
0
0
0
0
0
0
0
0
0
0
0
0
0
0
0
0
0
0
0
0
0
0
0
0
0
0
0
0
0
0
0
0
0
0
0
0
0
0
0
0
0
0
0
0
0
0
0
0
0
0
0
0
0
0
0
0
0
0
0
0
0
0
0
0
0
0
0
0
0
0
0
0
0
0
0
0
0
0
0
0
0
0
0
0
0
0
0
0
0
0
0
0
0
0
0
0
0
0
0
0
0
0
0
0
0
0
0
0
0
0
0
0
0
0
0
0
0
0
0
0
0
0
0
0
0
0
0
0
0
0
0
0
0
0
0
0
0
0
0
0
0
0
0
0
0
0
0
0
0
0
0
0
0
0
0
0
0
0
0
0
0
0
0
0
0
0
0
0
0
0
0
0
0
0
0
0
0
0
0
0
0
0
0
0
0
0
0
0
0
0
0
0
0
0
0
0
0
0
0
0
0
0
0
0
0
0
0
0
0
0
0
0
0
0
0
0
0
0
0
0
0
0
0
0
0
0
0
0
0
0
0
0
0
0
0
0
0
0
0
0
0
0
0
0
0
0
0
0
0
0
0
0
0
0
0
0
0
0
0
0
0
0
0
0
0
0
0
0
0
0
0
0
0
0
0
0
0
0
0
0
0
0
0
0
0
0
0
0
0
0
0
0
0
0
0
0
0
0
0
0
0
0
0
0
0
0
0
0
0
0
0
0
0
0
0
0
0
0
0
0
0
0
0
0
0
0
0
0
0
0
0
0
0
0
0
0
0
0
0
0
0
0
0
0
0
0
0
0
0
0
0
0
0
0
0
0
0
0
0
0
0
0
0
0
0
0
0
0
0
0
0
0
0
0
0
0
0
0
0
0
0
0
0
0
0
0
0
0
0
0
0
0
0
0
0
0
0
0
0
0
0
0
0
0
0
0
0
0
0
0
0
0
0
0
0
0
0
0
0
0
0
0
0
0
0
0
0
0
0
0
0
0
0
0
0
0
0
0
0
0
0
0
0
0
0
0
0
0
0
0
0
0
0
0
0
0
0
0
0
0
0
0
0
0
0
0
0
0
0
0
0
0
0
0
0
0
0
0
0
0
0
0
0
0
0
0
0
0
0
0
0
0
0
0
0
0
0
0
0
0
0
0
0
0
0
0
0
0
0
0
0
0
0
0
0
0
0
0
0
0
0
0
0
0
0
0
0
0
0
0
0
0
0
0
0
0
0
0
0
0
0
0
0
0
0
0
0
0
0
0
0
0
0
0
0
0
0
0
0
0
0
0
0
0
0
0
0
0
0
0
0
0
0
0
0
0
0
0
0
0
0
0
0
0
0
0
0
0
0
0
0
0
0
0
0
0
0
0
0
0
0
0
0
0
0
0
0
0
0
0
0
0
0
0
0
0
0
0
0
0
0
0
0
0
0
0
0
0
0
0
0
0
0
0
0
0
0
0
0
0
0
0
0
0
0
0
0
0
0
0
0
0
0
0
0
0
0
0
0
0
0
0
0
0
0
0
0
0
0
0
0
0
0
0
0
0
0
0
0
0
0
0
0
0
0
0
0
0
0
0
0
0
0
0
0
0
0
0
0
0
0
0
0
0
0
0
0
0
0
0
0
0
0
0
0
0
0
0
0
0
0
0
0
0
0
0
0
0
0
0
0
0
0
0
0
0
0
0
0
0
0
0
0
0
0
0
0
0
0
0
0
0
0
0
0
0
0
0
0
0
0
0
0
0
0
0
0
0
0
0
0
0
0
0
0
0
0
0
0
0
0
0
0
0
0
0
0
0
0
0
0
0
0
0
0
0
0
0
0
0
0
0
0
0
0
0
0
0
0
0
0
0
0
0
0
0
0
0
0
0
0
0
0
0
0
0
0
0
0
0
0
0
0
0
0
0
0
0
0
0
0
0
0
0
0
0
0
0
0
0
0
0
0
0
0
0
0
0
0
0
0
0
0
0
0
0
0
0
0
0
0
0
0
0
0
0
0
0
0
0
0
0
0
0
0
0
0
0
0
0
0
0
0
0
0
0
0
0
0
0
0
0
0
0
0
0
0
0
0
0
0
0
0
0
0
0
0
0
0
0
0
0
0
0
0
0
0
0
0
0
0
0
0
0
0
0
0
0
0
0
0
0
0
0
0
0
0
0
0
0
0
0
0
0
0
0
0
0
0
0
0
0
0
0
0
0
0
0
0
0
0
0
0
0
0
0
0
0
0
0
0
0
0
0
0
0
0
0
0
0
0
0
0
0
0
0
0
0
0
0
0
0
0
0
0
0
0
0
0
0
0
0
0
0
0
0
0
0
0
0
0
0
0
0
0
0
0
0
0
0
0
0
0
0
0
0
0
0
0
0
0
0
0
0
0
0
0
0
0
0
0
0
0
0
0
0
0
0
0
0
0
0
0
0
0
0
0
0
0
0
0
0
0
0
0
0
0
0
0
0
0
0
0
0
0
0
0
0
0
0
0
0
0
0
0
0
0
0
0
0
0
0
0
0
0
0
0
0
0
0
0
0
0
0
0
0
0
0
0
0
0
0
0
0
0
0
0
0
0
0
0
0
0
0
0
0
0
0
0
0
0
0
0
0
0
0
0
0
0
0
0
0
0
0
0
0
0
0
0
0
0
0
0
0
0
0
0
0
0
0
0
0
0
0
0
0
0
0
0
0
0
0
0
0
0
0
0
0
0
0
0
0
0
0
0
0
0
0
0
0
0
0
0
0
0
0
0
0
0
0
0
0
0
0
0
0
0
0
0
0
0
0
0
0
0
0
0
0
0
0
0
0
0
0
0
0
0
0
0
0
0
0
0
0
0
0
0
0
0
0
0
0
0
0
0
0
0
0
0
0
0
0
0
0
0
0
0
0
0
0
0
0
0
0
0
0
0
0
0
0
0
0
0
0
0
0
0
0
0
0
0
0
0
0
0
0
0
0
0
0
0
0
0
0
0
0
0
0
0
0
0
0
0
0
0
0
0
0
0
0
0
0
0
0
0
0
0
0
0
0
0
0
0
0
0
0
0
0
0
0
0
0
0
0
0
0
0
0
0
0
0
0
0
0
0
0
0
0
0
0
0
0
0
0
0
0
0
0
0
0
0
0
0
0
0
0
0
0
0
0
0
0
0
0
0
0
0
0
0
0
0
0
0
0
0
0
0
0
0
0
0
0
0
0
0
0
0
0
0
0
0
0
0
0
0
0
0
0
0
0
0
0
0
0
0
0
0
0
0
0
0
0
0
0
0
0
0
0
0
0
0
0
0
0
0
0
0
0
0
0
0
0
0
0
0
0
0
0
0
0
0
0
0
0
0
0
0
0
0
0
0
0
0
0
0
0
0
0
0
0
0
0
0
0
0
0
0
0
0
0
0
0
0
0
0
0
0
0
0
0
0
0
0
0
0
0
0
0
0
0
0
0
0
0
0
0
0
0
0
0
0
0
0
0
0
0
0
0
0
0
0
0
0
0
0
0
0
0
0
0
0
0
0
0
0
0
0
0
0
0
0
0
0
0
0
0
0
0
0
0
0
0
0
0
0
0
0
0
0
0
0
0
0
0
0
0
0
0
0
0
0
0
0
0
0
0
0
0
0
0
0
0
0
0
0
0
0
0
0
0
0
0
0
0
0
0
0
0
0
0
0
0
0
0
0
0
0
0
0
0
0
0
0
0
0
0
0
0
0
0
0
0
0
0
0
0
0
0
0
0
0
0
0
0
0
0
0
0
0
0
0
0
0
0
0
0
0
0
0
0
0
0
0
0
0
0
0
0
0
0
0
0
0
0
0
0
0
0
0
0
0
0
0
0
0
0
0
0
0
0
0
0
0
0
0
0
0
0
0
0
0
0
0
0
0
0
0
0
0
0
0
0
0
0
0
0
0
0
0
0
0
0
0
0
0
0
0
0
0
0
0
0
0
0
0
0
0
0
0
0
0
0
0
0
0
0
0
0
0
0
0
0
0
0
0
0
0
0
0
0
0
0
0
0
0
0
0
0
0
0
0
0
0
0
0
0
0
0
0
0
0
0
0
0
0
0
0
0
0
0
0
0
0
0
0
0
0
0
0
0
0
0
0
0
0
0
0
0
0
0
0
0
0
0
0
0
0
0
0
0
0
0
0
0
0
0
0
0
0
0
0
0
0
0
0
0
0
0
0
0
0
0
0
0
0
0
0
0
0
0
0
0
0
0
0
0
0
0
0
0
0
0
0
0
0
0
0
0
0
0
0
0
0
0
0
0
0
0
0
0
0
0
0
0
0
0
0
0
0
0
0
0
0
0
0
0
0
0
0
0
0
0
0
0
0
0
0
0
0
0
0
0
0
0
0
0
0
0
0
0
0
0
0
0
0
0
0
0
0
0
0
0
0
0
0
0
0
0
0
0
0
0
0
0
0
0
0
0
0
0
0
0
0
0
0
0
0
0
0
0
0
0
0
0
0
0
0
0
0
0
0
0
0
0
0
0
0
0
0
0
0
0
0
0
0
0
0
0
0
0
0
0
0
0
0
0
0
0
0
0
0
0
0
0
0
0
0
0
0
0
0
0
0
0
0
0
0
0
0
0
0
0
0
0
0
0
0
0
0
0
0
0
0
0
0
0
0
0
0
0
0
0
0
0
0
0
0
0
0
0
0
0
0
0
0
0
0
0
0
0
0
0
0
0
0
0
0
0
0
0
0
0
0
0
0
0
0
0
0
0
0
0
0
0
0
0
0
0
0
0
0
0
0
0
0
0
0
0
0
0
0
0
0
0
0
0
0
0
0
0
0
0
0
0
0
0
0
0
0
0
0
0
0
0
0
0
0
0
0
0
0
0
0
0
0
0
0
0
0
0
0
0
0
0
0
0
0
0
0
0
0
0
0
0
0
0
0
0
0
0
0
0
0
0
0
0
0
0
0
0
0
0
0
0
0
0
0
0
0
0
0
0
0
0
0
0
0
0
0
0
0
0
0
0
0
0
0
0
0
0
0
0
0
0
0
0
0
0
0
0
0
0
0
0
0
0
0
0
0
0
0
0
0
0
0
0
0
0
0
0
0
0
0
0
0
0
0
0
0
0
0
0
0
0
0
0
0
0
0
0
0
0
0
0
0
0
0
0
0
0
0
0
0
0
0
0
0
0
0
0
0
0
0
0
0
0
0
0
0
0
0
0
0
0
0
0
0
0
0
0
0
0
0
0
0
0
0
0
0
0
0
0
0
0
0
0
0
0
0
0
0
0
0
0
0
0
0
0
0
0
0
0
0
0
0
0
0
0
0
0
0
0
0
0
0
0
0
0
0
0
0
0
0
0
0
0
0
0
0
0
0
0
0
0
0
0
0
0
0
0
0
0
0
0
0
0
0
0
0
0
0
0
0
0
0
0
0
0
0
0
0
0
0
0
0
0
0
0
0
0
0
0
0
0
0
0
0
0
0
0
0
0
0
0
0
0
0
0
0
0
0
0
0
0
0
0
0
0
0
0
0
0
0
0
0
0
0
0
0
0
0
0
0
0
0
0
0
0
0
0
0
0
0
0
0
0
0
0
0
0
0
0
0
0
0
0
0
0
0
0
0
0
0
0
0
0
0
0
0
0
0
0
0
0
0
0
0
0
0
0
0
0
0
0
0
0
0
0
0
0
0
0
0
0
0
0
0
0
0
0
0
0
0
0
0
0
0
0
0
0
0
0
0
0
0
0
0
0
0
0
0
0
0
0
0
0
0
0
0
0
0
0
0
0
0
0
0
0
0
0
0
0
0
0
0
0
0
0
0
0
0
0
0
0
0
0
0
0
0
0
0
0
0
0
0
0
0
0
0
0
0
0
0
0
0
0
0
0
0
0
0
0
0
0
0
0
0
0
0
0
0
0
0
0
0
0
0
0
0
0
0
0
0
0
0
0
0
0
0
0
0
0
0
0
0
0
0
0
0
0
0
0
0
0
0
0
0
0
0
0
0
0
0
0
0
0
0
0
0
0
0
0
0
0
0
0
0
0
0
0
0
0
0
0
0
0
0
0
0
0
0
0
0
0
0
0
0
0
0
0
0
0
0
0
0
0
0
0
0
0
0
0
0
0
0
0
0
0
0
0
0
0
0
0
0
0
0
0
0
0
0
0
0
0
0
0
0
0
0
0
0
0
0
0
0
0
0
0
0
0
0
0
0
0
0
0
0
0
0
0
0
0
0
0
0
0
0
0
0
0
0
0
0
0
0
0
0
0
0
0
0
0
0
0
0
0
0
0
0
0
0
0
0
0
0
0
0
0
0
0
0
0
0
0
0
0
0
0
0
0
0
0
0
0
0
0
0
0
0
0
0
0
0
0
0
0
0
0
0
0
0
0
0
0
0
0
0
0
0
0
0
0
0
0
0
0
0
0
0
0
0
0
0
0
0
0
0
0
0
0
0
0
0
0
0
0
0
0
0
0
0
0
0
0
0
0
0
0
0
0
0
0
0
0
0
0
0
0
0
0
0
0
0
0
0
0
0
0
0
0
0
0
0
0
0
0
0
0
0
0
0
0
0
0
0
0
0
0
0
0
0
0
0
0
0
0
0
0
0
0
0
0
0
0
0
0
0
0
0
0
0
0
0
0
0
0
0
0
0
0
0
0
0
0
0
0
0
0
0
0
0
0
0
0
0
0
0
0
0
0
0
0
0
0
0
0
0
0
0
0
0
0
0
0
0
0
0
0
0
0
0
0
0
0
0
0
0
0
0
0
0
0
0
0
0
0
0
0
0
0
0
0
0
0
0
0
0
0
0
0
0
0
0
0
0
0
0
0
0
0
0
0
0
0
0
0
0
0
0
0
0
0
0
0
0
0
0
0
0
0
0
0
0
0
0
0
0
0
0
0
0
0
0
0
0
0
0
0
0
0
0
0
0
0
0
0
0
0
0
0
0
0
0
0
0
0
0
0
0
0
0
0
0
0
0
0
0
0
0
0
0
0
0
0
0
0
0
0
0
0
0
0
0
0
0
0
0
0
0
0
0
0
0
0
0
0
0
0
0
0
0
0
0
0
0
0
0
0
0
0
0
0
0
0
0
0
0
0
0
0
0
0
0
0
0
0
0
0
0
0
0
0
0
0
0
0
0
0
0
0
0
0
0
0
0
0
0
0
0
0
0
0
0
0
0
0
0
0
0
0
0
0
0
0
0
0
0
0
0
0
0
0
0
0
0
0
0
0
0
0
0
0
0
0
0
0
0
0
0
0
0
0
0
0
0
0
0
0
0
0
0
0
0
0
0
0
0
0
0
0
0
0
0
0
0
0
0
0
0
0
0
0
0
0
0
0
0
0
0
0
0
0
0
0
0
0
0
0
0
0
0
0
0
0
0
0
0
0
0
0
0
0
0
0
0
0
0
0
0
0
0
0
0
0
0
0
0
0
0
0
0
0
0
0
0
0
0
0
0
0
0
0
0
0
0
0
0
0
0
0
0
0
0
0
0
0
0
0
0
0
0
0
0
0
0
0
0
0
0
0
0
0
0
0
0
0
0
0
0
0
0
0
0
0
0
0
0
0
0
0
0
0
0
0
0
0
0
0
0
0
0
0
0
0
0
0
0
0
0
0
0
0
0
0
0
0
0
0
0
0
0
0
0
0
0
0
0
0
0
0
0
0
0
0
0
0
0
0
0
0
0
0
0
0
0
0
0
0
0
0
0
0
0
0
0
0
0
0
0
0
0
0
0
0
0
0
0
0
0
0
0
0
0
0
0
0
0
0
0
0
0
0
0
0
0
0
0
0
0
0
0
0
0
0
0
0
0
0
0
0
0
0
0
0
0
0
0
0
0
0
0
0
0
0
0
0
0
0
0
0
0
0
0
0
0
0
0
0
0
0
0
0
0
0
0
0
0
0
0
0
0
0
0
0
0
0
0
0
0
0
0
0
0
0
0
0
0
0
0
0
0
0
0
0
0
0
0
0
0
0
0
0
0
0
0
0
0
0
0
0
0
0
0
0
0
0
0
0
0
0
0
0
0
0
0
0
0
0
0
0
0
0
0
0
0
0
0
0
0
0
0
0
0
0
0
0
0
0
0
0
0
0
0
0
0
0
0
0
0
0
0
0
0
0
0
0
0
0
0
0
0
0
0
0
0
0
0
0
0
0
0
0
0
0
0
0
0
0
0
0
0
0
0
0
0
0
0
0
0
0
0
0
0
0
0
0
0
0
0
0
0
0
0
0
0
0
0
0
0
0
0
0
0
0
0
0
0
0
0
0
0
0
0
0
0
0
0
0
0
0
0
0
0
0
0
0
0
0
0
0
0
0
0
0
0
0
0
0
0
0
0
0
0
0
0
0
0
0
0
0
0
0
0
0
0
0
0
0
0
0
0
0
0
0
0
0
0
0
0
0
0
0
0
0
0
0
0
0
0
0
0
0
0
0
0
0
0
0
0
0
0
0
0
0
0
0
0
0
0
0
0
0
0
0
0
0
0
0
0
0
0
0
0
0
0
0
0
0
0
0
0
0
0
0
0
0
0
0
0
0
0
0
0
0
0
0
0
0
0
0
0
0
0
0
0
0
0
0
0
0
0
0
0
0
0
0
0
0
0
0
0
0
0
0
0
0
0
0
0
0
0
0
0
0
0
0
0
0
0
0
0
0
0
0
0
0
0
0
0
0
0
0
0
0
0
0
0
0
0
0
0
0
0
0
0
0
0
0
0
0
0
0
0
0
0
0
0
0
0
0
0
0
0
0
0
0
0
0
0
0
0
0
0
0
0
0
0
0
0
0
0
0
0
0
0
0
0
0
0
0
0
0
0
0
0
0
0
0
0
0
0
0
0
0
0
0
0
0
0
0
0
0
0
0
0
0
0
0
0
0
0
0
0
0
0
0
0
0
0
0
0
0
0
0
0
0
0
0
0
0
0
0
0
0
0
0
0
0
0
0
0
0
0
0
0
0
0
0
0
0
0
0
0
0
0
0
0
0
0
0
0
0
0
0
0
0
0
0
0
0
0
0
0
0
0
0
0
0
0
0
0
0
0
0
0
0
0
0
0
0
0
0
0
0
0
0
0
0
0
0
0
0
0
0
0
0
0
0
0
0
0
0
0
0
0
0
0
0
0
0
0
0
0
0
0
0
0
0
0
0
0
0
0
0
0
0
0
0
0
0
0
0
0
0
0
0
0
0
0
0
0
0
0
0
0
0
0
0
0
0
0
0
0
0
0
0
0
0
0
0
0
0
0
0
0
0
0
0
0
0
0
0
0
0
0
0
0
0
0
0
0
0
0
0
0
0
0
0
0
0
0
0
0
0
0
0
0
0
0
0
0
0
0
0
0
0
0
0
0
0
0
0
0
0
0
0
0
0
0
0
0
0
0
0
0
0
0
0
0
0
0
0
0
0
0
0
0
0
0
0
0
0
0
0
0
0
0
0
0
0
0
0
0
0
0
0
0
0
0
0
0
0
0
0
0
0
0
0
0
0
0
0
0
0
0
0
0
0
0
0
0
0
0
0
0
0
0
0
0
0
0
0
0
0
0
0
0
0
0
0
0
0
0
0
0
0
0
0
0
0
0
0
0
0
0
0
0
0
0
0
0
0
0
0
0
0
0
0
0
0
0
0
0
0
0
0
0
0
0
0
0
0
0
0
0
0
0
0
0
0
0
0
0
0
0
0
0
0
0
0
0
0
0
0
0
0
0
0
0
0
0
0
0
0
0
0
0
0
0
0
0
0
0
0
0
0
0
0
0
0
0
0
0
0
0
0
0
0
0
0
0
0
0
0
0
0
0
0
0
0
0
0
0
0
0
0
0
0
0
0
0
0
0
0
0
0
0
0
0
0
0
0
0
0
0
0
0
0
0
0
0
0
0
0
0
0
0
0
0
0
0
0
0
0
0
0
0
0
0
0
0
0
0
0
0
0
0
0
0
0
0
0
0
0
0
0
0
0
0
0
0
0
0
0
0
0
0
0
0
0
0
0
0
0
0
0
0
0
0
0
0
0
0
0
0
0
0
0
0
0
0
0
0
0
0
0
0
0
0
0
0
0
0
0
0
0
0
0
0
0
0
0
0
0
0
0
0
0
0
0
0
0
0
0
0
0
0
0
0
0
0
0
0
0
0
0
0
0
0
0
0
0
0
0
0
0
0
0
0
0
0
0
0
0
0
0
0
0
0
0
0
0
0
0
0
0
0
0
0
0
0
0
0
0
0
0
0
0
0
0
0
0
0
0
0
0
0
0
0
0
0
0
0
0
0
0
0
0
0
0
0
0
0
0
0
0
0
0
0
0
0
0
0
0
0
0
0
0
0
0
0
0
0
0
0
0
0
0
0
0
0
0
0
0
0
0
0
0
0
0
0
0
0
0
0
0
0
0
0
0
0
0
0
0
0
0
0
0
0
0
0
0
0
0
0
0
0
0
0
0
0
0
0
0
0
0
0
0
0
0
0
0
0
0
0
0
0
0
0
0
0
0
0
0
0
0
0
0
0
0
0
0
0
0
0
0
0
0
0
0
0
0
0
0
0
0
0
0
0
0
0
0
0
0
0
0
0
0
0
0
0
0
0
0
0
0
0
0
0
0
0
0
0
0
0
0
0
0
0
0
0
0
0
0
0
0
0
0
0
0
0
0
0
0
0
0
0
0
0
0
0
0
0
0
0
0
0
0
0
0
0
0
0
0
0
0
0
0
0
0
0
0
0
0
0
0
0
0
0
0
0
0
0
0
0
0
0
0
0
0
0
0
0
0
0
0
0
0
0
0
0
0
0
0
0
0
0
0
0
0
0
0
0
0
0
0
0
0
0
0
0
0
0
0
0
0
0
0
0
0
0
0
0
0
0
0
0
0
0
0
0
0
0
0
0
0
0
0
0
0
0
0
0
0
0
0
0
0
0
0
0
0
0
0
0
0
0
0
0
0
0
0
0
0
0
0
0
0
0
0
0
0
0
0
0
0
0
0
0
0
0
0
0
0
0
0
0
0
0
0
0
0
0
0
0
0
0
0
0
0
0
0
0
0
0
0
0
0
0
0
0
0
0
0
0
0
0
0
0
0
0
0
0
0
0
0
0
0
0
0
0
0
0
0
0
0
0
0
0
0
0
0
0
0
0
0
0
0
0
0
0
0
0
0
0
0
0
0
0
0
0
0
0
0
0
0
0
0
0
0
0
0
0
0
0
0
0
0
0
0
0
0
0
0
0
0
0
0
0
0
0
0
0
0
0
0
0
0
0
0
0
0
0
0
0
0
0
0
0
0
0
0
0
0
0
0
0
0
0
0
0
0
0
0
0
0
0
0
0
0
0
0
0
0
0
0
0
0
0
0
0
0
0
0
0
0
0
0
0
0
0
0
0
0
0
0
0
0
0
0
0
0
0
0
0
0
0
0
0
0
0
0
0
0
0
0
0
0
0
0
0
0
0
0
0
0
0
0
0
0
0
0
0
0
0
0
0
0
0
0
0
0
0
0
0
0
0
0
0
0
0
0
0
0
0
0
0
0
0
0
0
0
0
0
0
0
0
0
0
0
0
0
0
0
0
0
0
0
0
0
0
0
0
0
0
0
0
0
0
0
0
0
0
0
0
0
0
0
0
0
0
0
0
0
0
0
0
0
0
0
0
0
0
0
0
0
0
0
0
0
0
0
0
0
0
0
0
0
0
0
0
0
0
0
0
0
0
0
0
0
0
0
0
0
0
0
0
0
0
0
0
0
0
0
0
0
0
0
0
0
0
0
0
0
0
0
0
0
0
0
0
0
0
0
0
0
0
0
0
0
0
0
0
0
0
0
0
0
0
0
0
0
0
0
0
0
0
0
0
0
0
0
0
0
0
0
0
0
0
0
0
0
0
0
0
0
0
0
0
0
0
0
0
0
0
0
0
0
0
0
0
0
0
0
0
0
0
0
0
0
0
0
0
0
0
0
0
0
0
0
0
0
0
0
0
0
0
0
0
0
0
0
0
0
0
0
0
0
0
0
0
0
0
0
0
0
0
0
0
0
0
0
0
0
0
0
0
0
0
0
0
0
0
0
0
0
0
0
0
0
0
0
0
0
0
0
0
0
0
0
0
0
0
0
0
0
0
0
0
0
0
0
0
0
0
0
0
0
0
0
0
0
0
0
0
0
0
0
0
0
0
0
0
0
0
0
0
0
0
0
0
0
0
0
0
0
0
0
0
0
0
0
0
0
0
0
0
0
0
0
0
0
0
0
0
0
0
0
0
0
0
0
0
0
0
0
0
0
0
0
0
0
0
0
0
0
0
0
0
0
0
0
0
0
0
0
0
0
0
0
0
0
0
0
0
0
0
0
0
0
0
0
0
0
0
0
0
0
0
0
0
0
0
0
0
0
0
0
0
0
0
0
0
0
0
0
0
0
0
0
0
0
0
0
0
0
0
0
0
0
0
0
0
0
0
0
0
0
0
0
0
0
0
0
0
0
0
0
0
0
0
0
0
0
0
0
0
0
0
0
0
0
0
0
0
0
0
0
0
0
0
0
0
0
0
0
0
0
0
0
0
0
0
0
0
0
0
0
0
0
0
0
0
0
0
0
0
0
0
0
0
0
0
0
0
0
0
0
0
0
0
0
0
0
0
0
0
0
0
0
0
0
0
0
0
0
0
0
0
0
0
0
0
0
0
0
0
0
0
0
0
0
0
0
0
0
0
0
0
0
0
0
0
0
0
0
0
0
0
0
0
0
0
0
0
0
0
0
0
0
0
0
0
0
0
0
0
0
0
0
0
0
0
0
0
0
0
0
0
0
0
0
0
0
0
0
0
0
0
0
0
0
0
0
0
0
0
0
0
0
0
0
0
0
0
0
0
0
0
0
0
0
0
0
0
0
0
0
0
0
0
0
0
0
0
0
0
0
0
0
0
0
0
0
0
0
0
0
0
0
0
0
0
0
0
0
0
0
0
0
0
0
0
0
0
0
0
0
0
0
0
0
0
0
0
0
0
0
0
0
0
0
0
0
0
0
0
0
0
0
0
0
0
0
0
0
0
0
0
0
0
0
0
0
0
0
0
0
0
0
0
0
0
0
0
0
0
0
0
0
0
0
0
0
0
0
0
0
0
0
0
0
0
0
0
0
0
0
0
0
0
0
0
0
0
0
0
0
0
0
0
0
0
0
0
0
0
0
0
0
0
0
0
0
0
0
0
0
0
0
0
0
0
0
0
0
0
0
0
0
0
0
0
0
0
0
0
0
0
0
0
0
0
0
0
0
0
0
0
0
0
0
0
0
0
0
0
0
0
0
0
0
0
0
0
0
0
0
0
0
0
0
0
0
0
0
0
0
0
0
0
0
0
0
0
0
0
0
0
0
0
0
0
0
0
0
0
0
0
0
0
0
0
0
0
0
0
0
0
0
0
0
0
0
0
0
0
0
0
0
0
0
0
0
0
0
0
0
0
0
0
0
0
0
0
0
0
0
0
0
0
0
0
0
0
0
0
0
0
0
0
0
0
0
0
0
0
0
0
0
0
0
0
0
0
0
0
0
0
0
0
0
0
0
0
0
0
0
0
0
0
0
0
0
0
0
0
0
0
0
0
0
0
0
0
0
0
0
0
0
0
0
0
0
0
0
0
0
0
0
0
0
0
0
0
0
0
0
0
0
0
0
0
0
0
0
0
0
0
0
0
0
0
0
0
0
0
0
0
0
0
0
0
0
0
0
0
0
0
0
0
0
0
0
0
0
0
0
0
0
0
0
0
0
0
0
0
0
0
0
0
0
0
0
0
0
0
0
0
0
0
0
0
0
0
0
0
0
0
0
0
0
0
0
0
0
0
0
0
0
0
0
0
0
0
0
0
0
0
0
0
0
0
0
0
0
0
0
0
0
0
0
0
0
0
0
0
0
0
0
0
0
0
0
0
0
0
0
0
0
0
0
0
0
0
0
0
0
0
0
0
0
0
0
0
0
0
0
0
0
0
0
0
0
0
0
0
0
0
0
0
0
0
0
0
0
0
0
0
0
0
0
0
0
0
0
0
0
0
0
0
0
0
0
0
0
0
0
0
0
0
0
0
0
0
0
0
0
0
0
0
0
0
0
0
0
0
0
0
0
0
0
0
0
0
0
0
0
0
0
0
0
0
0
0
0
0
0
0
0
0
0
0
0
0
0
0
0
0
0
0
0
0
0
0
0
0
0
0
0
0
0
0
0
0
0
0
0
0
0
0
0
0
0
0
0
0
0
0
0
0
0
0
0
0
0
0
0
0
0
0
0
0
0
0
0
0
0
0
0
0
0
0
0
0
0
0
0
0
0
0
0
0
0
0
0
0
0
0
0
0
0
0
0
0
0
0
0
0
0
0
0
0
0
0
0
0
0
0
0
0
0
0
0
0
0
0
0
0
0
0
0
0
0
0
0
0
0
0
0
0
0
0
0
0
0
0
0
0
0
0
0
0
0
0
0
0
0
0
0
0
0
0
0
0
0
0
0
0
0
0
0
0
0
0
0
0
0
0
0
0
0
0
0
0
0
0
0
0
0
0
0
0
0
0
0
0
0
0
0
0
0
0
0
0
0
0
0
0
0
0
0
0
0
0
0
0
0
0
0
0
0
0
0
0
0
0
0
0
0
0
0
0
0
0
0
0
0
0
0
0
0
0
0
0
0
0
0
0
0
0
0
0
0
0
0
0
0
0
0
0
0
0
0
0
0
0
0
0
0
0
0
0
0
0
0
0
0
0
0
0
0
0
0
0
0
0
0
0
0
0
0
0
0
0
0
0
0
0
0
0
0
0
0
0
0
0
0
0
0
0
0
0
0
0
0
0
0
0
0
0
0
0
0
0
0
0
0
0
0
0
0
0
0
0
0
0
0
0
0
0
0
0
0
0
0
0
0
0
0
0
0
0
0
0
0
0
0
0
0
0
0
0
0
0
0
0
0
0
0
0
0
0
0
0
0
0
0
0
0
0
0
0
0
0
0
0
0
0
0
0
0
0
0
0
0
0
0
0
0
0
0
0
0
0
0
0
0
0
0
0
0
0
0
0
0
0
0
0
0
0
0
0
0
0
0
0
0
0
0
0
0
0
0
0
0
0
0
0
0
0
0
0
0
0
0
0
0
0
0
0
0
0
0
0
0
0
0
0
0
0
0
0
0
0
0
0
0
0
0
0
0
0
0
0
0
0
0
0
0
0
0
0
0
0
0
0
0
0
0
0
0
0
0
0
0
0
0
0
0
0
0
0
0
0
0
0
0
0
0
0
0
0
0
0
0
0
0
0
0
0
0
0
0
0
0
0
0
0
0
0
0
0
0
0
0
0
0
0
0
0
0
0
0
0
0
0
0
0
0
0
0
0
0
0
0
0
0
0
0
0
0
0
0
0
0
0
0
0
0
0
0
0
0
0
0
0
0
0
0
0
0
0
0
0
0
0
0
0
0
0
0
0
0
0
0
0
0
0
0
0
0
0
0
0
0
0
0
0
0
0
0
0
0
0
0
0
0
0
0
0
0
0
0
0
0
0
0
0
0
0
0
0
0
0
0
0
0
0
0
0
0
0
0
0
0
0
0
0
0
0
0
0
0
0
0
0
0
0
0
0
0
0
0
0
0
0
0
0
0
0
0
0
0
0
0
0
0
0
0
0
0
0
0
0
0
0
0
0
0
0
0
0
0
0
0
0
0
0
0
0
0
0
0
0
0
0
0
0
0
0
0
0
0
0
0
0
0
0
0
0
0
0
0
0
0
0
0
0
0
0
0
0
0
0
0
0
0
0
0
0
0
0
0
0
0
0
0
0
0
0
0
0
0
0
0
0
0
0
0
0
0
0
0
0
0
0
0
0
0
0
0
0
0
0
0
0
0
0
0
0
0
0
0
0
0
0
0
0
0
0
0
0
0
0
0
0
0
0
0
0
0
0
0
0
0
0
0
0
0
0
0
0
0
0
0
0
0
0
0
0
0
0
0
0
0
0
0
0
0
0
0
0
0
0
0
0
0
0
0
0
0
0
0
0
0
0
0
0
0
0
0
0
0
0
0
0
0
0
0
0
0
0
0
0
0
0
0
0
0
0
0
0
0
0
0
0
0
0
0
0
0
0
0
0
0
0
0
0
0
0
0
0
0
0
0
0
0
0
0
0
0
0
0
0
0
0
0
0
0
0
0
0
0
0
0
0
0
0
0
0
0
0
0
0
0
0
0
0
0
0
0
0
0
0
0
0
0
0
0
0
0
0
0
0
0
0
0
0
0
0
0
0
0
0
0
0
0
0
0
0
0
0
0
0
0
0
0
0
0
0
0
0
0
0
0
0
0
0
0
0
0
0
0
0
0
0
0
0
0
0
0
0
0
0
0
0
0
0
0
0
0
0
0
0
0
0
0
0
0
0
0
0
0
0
0
0
0
0
0
0
0
0
0
0
0
0
0
0
0
0
0
0
0
0
0
0
0
0
0
0
0
0
0
0
0
0
0
0
0
0
0
0
0
0
0
0
0
0
0
0
0
0
0
0
0
0
0
0
0
0
0
0
0
0
0
0
0
0
0
0
0
0
0
0
0
0
0
0
0
0
0
0
0
0
0
0
0
0
0
0
0
0
0
0
0
0
0
0
0
0
0
0
0
0
0
0
0
0
0
0
0
0
0
0
0
0
0
0
0
0
0
0
0
0
0
0
0
0
0
0
0
0
0
0
0
0
0
0
0
0
0
0
0
0
0
0
0
0
0
0
0
0
0
0
0
0
0
0
0
0
0
0
0
0
0
0
0
0
0
0
0
0
0
0
0
0
0
0
0
0
0
0
0
0
0
0
0
0
0
0
0
0
0
0
0
0
0
0
0
0
0
0
0
0
0
0
0
0
0
0
0
0
0
0
0
0
0
0
0
0
0
0
0
0
0
0
0
0
0
0
0
0
0
0
0
0
0
0
0
0
0
0
0
0
0
0
0
0
0
0
0
0
0
0
0
0
0
0
0
0
0
0
0
0
0
0
0
0
0
0
0
0
0
0
0
0
0
0
0
0
0
0
0
0
0
0
0
0
0
0
0
0
0
0
0
0
0
0
0
0
0
0
0
0
0
0
0
0
0
0
0
0
0
0
0
0
0
0
0
0
0
0
0
0
0
0
0
0
0
0
0
0
0
0
0
0
0
0
0
0
0
0
0
0
0
0
0
0
0
0
0
0
0
0
0
0
0
0
0
0
0
0
0
0
0
0
0
0
0
0
0
0
0
0
0
0
0
0
0
0
0
0
0
0
0
0
0
0
0
0
0
0
0
0
0
0
0
0
0
0
0
0
0
0
0
0
0
0
0
0
0
0
0
0
0
0
0
0
0
0
0
0
0
0
0
0
0
0
0
0
0
0
0
0
0
0
0
0
0
0
0
0
0
0
0
0
0
0
0
0
0
0
0
0
0
0
0
0
0
0
0
0
0
0
0
0
0
0
0
0
0
0
0
0
0
0
0
0
0
0
0
0
0
0
0
0
0
0
0
0
0
0
0
0
0
0
0
0
0
0
0
0
0
0
0
0
0
0
0
0
0
0
0
0
0
0
0
0
0
0
0
0
0
0
0
0
0
0
0
0
0
0
0
0
0
0
0
0
0
0
0
0
0
0
0
0
0
0
0
0
0
0
0
0
0
0
0
0
0
0
0
0
0
0
0
0
0
0
0
0
0
0
0
0
0
0
0
0
0
0
0
0
0
0
0
0
0
0
0
0
0
0
0
0
0
0
0
0
0
0
0
0
0
0
0
0
0
0
0
0
0
0
0
0
0
0
0
0
0
0
0
0
0
0
0
0
0
0
0
0
0
0
0
0
0
0
0
0
0
0
0
0
0
0
0
0
0
0
0
0
0
0
0
0
0
0
0
0
0
0
0
0
0
0
0
0
0
0
0
0
0
0
0
0
0
0
0
0
0
0
0
0
0
0
0
0
0
0
0
0
0
0
0
0
0
0
0
0
0
0
0
0
0
0
0
0
0
0
0
0
0
0
0
0
0
0
0
0
0
0
0
0
0
0
0
0
0
0
0
0
0
0
0
0
0
0
0
0
0
0
0
0
0
0
0
0
0
0
0
0
0
0
0
0
0
0
0
0
0
0
0
0
0
0
0
0
0
0
0
0
0
0
0
0
0
0
0
0
0
0
0
0
0
0
0
0
0
0
0
0
0
0
0
0
0
0
0
0
0
0
0
0
0
0
0
0
0
0
0
0
0
0
0
0
0
0
0
0
0
0
0
0
0
0
0
0
0
0
0
0
0
0
0
0
0
0
0
0
0
0
0
0
0
0
0
0
0
0
0
0
0
0
0
0
0
0
0
0
0
0
0
0
0
0
0
0
0
0
0
0
0
0
0
0
0
0
0
0
0
0
0
0
0
0
0
0
0
0
0
0
0
0
0
0
0
0
0
0
0
0
0
0
0
0
0
0
0
0
0
0
0
0
0
0
0
0
0
0
0
0
0
0
0
0
0
0
0
0
0
0
0
0
0
0
0
0
0
0
0
0
0
0
0
0
0
0
0
0
0
0
0
0
0
0
0
0
0
0
0
0
0
0
0
0
0
0
0
0
0
0
0
0
0
0
0
0
0
0
0
0
0
0
0
0
0
0
0
0
0
0
0
0
0
0
0
0
0
0
0
0
0
0
0
0
0
0
0
0
0
0
0
0
0
0
0
0
0
0
0
0
0
0
0
0
0
0
0
0
0
0
0
0
0
0
0
0
0
0
0
0
0
0
0
0
0
0
0
0
0
0
0
0
0
0
0
0
0
0
0
0
0
0
0
0
0
0
0
0
0
0
0
0
0
0
0
0
0
0
0
0
0
0
0
0
0
0
0
0
0
0
0
0
0
0
0
0
0
0
0
0
0
0
0
0
0
0
0
0
0
0
0
0
0
0
0
0
0
0
0
0
0
0
0
0
0
0
0
0
0
0
0
0
0
0
0
0
0
0
0
0
0
0
0
0
0
0
0
0
0
0
0
0
0
0
0
0
0
0
0
0
0
0
0
0
0
0
0
0
0
0
0
0
0
0
0
0
0
0
0
0
0
0
0
0
0
0
0
0
0
0
0
0
0
0
0
0
0
0
0
0
0
0
0
0
0
0
0
0
0
0
0
0
0
0
0
0
0
0
0
0
0
0
0
0
0
0
0
0
0
0
0
0
0
0
0
0
0
0
0
0
0
0
0
0
0
0
0
0
0
0
0
0
0
0
0
0
0
0
0
0
0
0
0
0
0
0
0
0
0
0
0
0
0
0
0
0
0
0
0
0
0
0
0
0
0
0
0
0
0
0
0
0
0
0
0
0
0
0
0
0
0
0
0
0
0
0
0
0
0
0
0
0
0
0
0
0
0
0
0
0
0
0
0
0
0
0
0
0
0
0
0
0
0
0
0
0
0
0
0
0
0
0
0
0
0
0
0
0
0
0
0
0
0
0
0
0
0
0
0
0
0
0
0
0
0
0
0
0
0
0
0
0
0
0
0
0
0
0
0
0
0
0
0
0
0
0
0
0
0
0
0
0
0
0
0
0
0
0
0
0
0
0
0
0
0
0
0
0
0
0
0
0
0
0
0
0
0
0
0
0
0
0
0
0
0
0
0
0
0
0
0
0
0
0
0
0
0
0
0
0
0
0
0
0
0
0
0
0
0
0
0
0
0
0
0
0
0
0
0
0
0
0
0
0
0
0
0
0
0
0
0
0
0
0
0
0
0
0
0
0
0
0
0
0
0
0
0
0
0
0
0
0
0
0
0
0
0
0
0
0
0
0
0
0
0
0
0
0
0
0
0
0
0
0
0
0
0
0
0
0
0
0
0
0
0
0
0
0
0
0
0
0
0
0
0
0
0
0
0
0
0
0
0
0
0
0
0
0
0
0
0
0
0
0
0
0
0
0
0
0
0
0
0
0
0
0
0
0
0
0
0
0
0
0
0
0
0
0
0
0
0
0
0
0
0
0
0
0
0
0
0
0
0
0
0
0
0
0
0
0
0
0
0
0
0
0
0
0
0
0
0
0
0
0
0
0
0
0
0
0
0
0
0
0
0
0
0
0
0
0
0
0
0
0
0
0
0
0
0
0
0
0
0
0
0
0
0
0
0
0
0
0
0
0
0
0
0
0
0
0
0
0
0
0
0
0
0
0
0
0
0
0
0
0
0
0
0
0
0
0
0
0
0
0
0
0
0
0
0
0
0
0
0
0
0
0
0
0
0
0
0
0
0
0
0
0
0
0
0
0
0
0
0
0
0
0
0
0
0
0
0
0
0
0
0
0
0
0
0
0
0
0
0
0
0
0
0
0
0
0
0
0
0
0
0
0
0
0
0
0
0
0
0
0
0
0
0
0
0
0
0
0
0
0
0
0
0
0
0
0
0
0
0
0
0
0
0
0
0
0
0
0
0
0
0
0
0
0
0
0
0
0
0
0
0
0
0
0
0
0
0
0
0
0
0
0
0
0
0
0
0
0
0
0
0
0
0
0
0
0
0
0
0
0
0
0
0
0
0
0
0
0
0
0
0
0
0
0
0
0
0
0
0
0
0
0
0
0
0
0
0
0
0
0
0
0
0
0
0
0
0
0
0
0
0
0
0
0
0
0
0
0
0
0
0
0
0
0
0
0
0
0
0
0
0
0
0
0
0
0
0
0
0
0
0
0
0
0
0
0
0
0
0
0
0
0
0
0
0
0
0
0
0
0
0
0
0
0
0
0
0
0
0
0
0
0
0
0
0
0
0
0
0
0
0
0
0
0
0
0
0
0
0
0
0
0
0
0
0
0
0
0
0
0
0
0
0
0
0
0
0
0
0
0
0
0
0
0
0
0
0
0
0
0
0
0
0
0
0
0
0
0
0
0
0
0
0
0
0
0
0
0
0
0
0
0
0
0
0
0
0
0
0
0
0
0
0
0
0
0
0
0
0
0
0
0
0
0
0
0
0
0
0
0
0
0
0
0
0
0
0
0
0
0
0
0
0
0
0
0
0
0
0
0
0
0
0
0
0
0
0
0
0
0
0
0
0
0
0
0
0
0
0
0
0
0
0
0
0
0
0
0
0
0
0
0
0
0
0
0
0
0
0
0
0
0
0
0
0
0
0
0
0
0
0
0
0
0
0
0
0
0
0
0
0
0
0
0
0
0
0
0
0
0
0
0
0
0
0
0
0
0
0
0
0
0
0
0
0
0
0
0
0
0
0
0
0
0
0
0
0
0
0
0
0
0
0
0
0
0
0
0
0
0
0
0
0
0
0
0
0
0
0
0
0
0
0
0
0
0
0
0
0
0
0
0
0
0
0
0
0
0
0
0
0
0
0
0
0
0
0
0
0
0
0
0
0
0
0
0
0
0
0
0
0
0
0
0
0
0
0
0
0
0
0
0
0
0
0
0
0
0
0
0
0
0
0
0
0
0
0
0
0
0
0
0
0
0
0
0
0
0
0
0
0
0
0
0
0
0
0
0
0
0
0
0
0
0
0
0
0
0
0
0
0
0
0
0
0
0
0
0
0
0
0
0
0
0
0
0
0
0
0
0
0
0
0
0
0
0
0
0
0
0
0
0
0
0
0
0
0
0
0
0
0
0
0
0
0
0
0
0
0
0
0
0
0
0
0
0
0
0
0
0
0
0
0
0
0
0
0
0
0
0
0
0
0
0
0
0
0
0
0
0
0
0
0
0
0
0
0
0
0
0
0
0
0
0
0
0
0
0
0
0
0
0
0
0
0
0
0
0
0
0
0
0
0
0
0
0
0
0
0
0
0
0
0
0
0
0
0
0
0
0
0
0
0
0
0
0
0
0
0
0
0
0
0
0
0
0
0
0
0
0
0
0
0
0
0
0
0
0
0
0
0
0
0
0
0
0
0
0
0
0
0
0
0
0
0
0
0
0
0
0
0
0
0
0
0
0
0
0
0
0
0
0
0
0
0
0
0
0
0
0
0
0
0
0
0
0
0
0
0
0
0
0
0
0
0
0
0
0
0
0
0
0
0
0
0
0
0
0
0
0
0
0
0
0
0
0
0
0
0
0
0
0
0
0
0
0
0
0
0
0
0
0
0
0
0
0
0
0
0
0
0
0
0
0
0
0
0
0
0
0
0
0
0
0
0
0
0
0
0
0
0
0
0
0
0
0
0
0
0
0
0
0
0
0
0
0
0
0
0
0
0
0
0
0
0
0
0
0
0
0
0
0
0
0
0
0
0
0
0
0
0
0
0
0
0
0
0
0
0
0
0
0
0
0
0
0
0
0
0
0
0
0
0
0
0
0
0
0
0
0
0
0
0
0
0
0
0
0
0
0
0
0
0
0
0
0
0
0
0
0
0
0
0
0
0
0
0
0
0
0
0
0
0
0
0
0
0
0
0
0
0
0
0
0
0
0
0
0
0
0
0
0
0
0
0
0
0
0
0
0
0
0
0
0
0
0
0
0
0
0
0
0
0
0
0
0
0
0
0
0
0
0
0
0
0
0
0
0
0
0
0
0
0
0
0
0
0
0
0
0
0
0
0
0
0
0
0
0
0
0
0
0
0
0
0
0
0
0
0
0
0
0
0
0
0
0
0
0
0
0
0
0
0
0
0
0
0
0
0
0
0
0
0
0
0
0
0
0
0
0
0
0
0
0
0
0
0
0
0
0
0
0
0
0
0
0
0
0
0
0
0
0
0
0
0
0
0
0
0
0
0
0
0
0
0
0
0
0
0
0
0
0
0
0
0
0
0
0
0
0
0
0
0
0
0
0
0
0
0
0
0
0
0
0
0
0
0
0
0
0
0
0
0
0
0
0
0
0
0
0
0
0
0
0
0
0
0
0
0
0
0
0
0
0
0
0
0
0
0
0
0
0
0
0
0
0
0
0
0
0
0
0
0
0
0
0
0
0
0
0
0
0
0
0
0
0
0
0
0
0
0
0
0
0
0
0
0
0
0
0
0
0
0
0
0
0
0
0
0
0
0
0
0
0
0
0
0
0
0
0
0
0
0
0
0
0
0
0
0
0
0
0
0
0
0
0
0
0
0
0
0
0
0
0
0
0
0
0
0
0
0
0
0
0
0
0
0
0
0
0
0
0
0
0
0
0
0
0
0
0
0
0
0
0
0
0
0
0
0
0
0
0
0
0
0
0
0
0
0
0
0
0
0
0
0
0
0
0
0
0
0
0
0
0
0
0
0
0
0
0
0
0
0
0
0
0
0
0
0
0
0
0
0
0
0
0
0
0
0
0
0
0
0
0
0
0
0
0
0
0
0
0
0
0
0
0
0
0
0
0
0
0
0
0
0
0
0
0
0
0
0
0
0
0
0
0
0
0
0
0
0
0
0
0
0
0
0
0
0
0
0
0
0
0
0
0
0
0
0
0
0
0
0
0
0
0
0
0
0
0
0
0
0
0
0
0
0
0
0
0
0
0
0
0
0
0
0
0
0
0
0
0
0
0
0
0
0
0
0
0
0
0
0
0
0
0
0
0
0
0
0
0
0
0
0
0
0
0
0
0
0
0
0
0
0
0
0
0
0
0
0
0
0
0
0
0
0
0
0
0
0
0
0
0
0
0
0
0
0
0
0
0
0
0
0
0
0
0
0
0
0
0
0
0
0
0
0
0
0
0
0
0
0
0
0
0
0
0
0
0
0
0
0
0
0
0
0
0
0
0
0
0
0
0
0
0
0
0
0
0
0
0
0
0
0
0
0
0
0
0
0
0
0
0
0
0
0
0
0
0
0
0
0
0
0
0
0
0
0
0
0
0
0
0
0
0
0
0
0
0
0
0
0
0
0
0
0
0
0
0
0
0
0
0
0
0
0
0
0
0
0
0
0
0
0
0
0
0
0
0
0
0
0
0
0
0
0
0
0
0
0
0
0
0
0
0
0
0
0
0
0
0
0
0
0
0
0
0
0
0
0
0
0
0
0
0
0
0
0
0
0
0
0
0
0
0
0
0
0
0
0
0
0
0
0
0
0
0
0
0
0
0
0
0
0
0
0
0
0
0
0
0
0
0
0
0
0
0
0
0
0
0
0
0
0
0
0
0
0
0
0
0
0
0
0
0
0
0
0
0
0
0
0
0
0
0
0
0
0
0
0
0
0
0
0
0
0
0
0
0
0
0
0
0
0
0
0
0
0
0
0
0
0
0
0
0
0
0
0
0
0
0
0
0
0
0
0
0
0
0
0
0
0
0
0
0
0
0
0
0
0
0
0
0
0
0
0
0
0
0
0
0
0
0
0
0
0
0
0
0
0
0
0
0
0
0
0
0
0
0
0
0
0
0
0
0
0
0
0
0
0
0
0
0
0
0
0
0
0
0
0
0
0
0
0
0
0
0
0
0
0
0
0
0
0
0
0
0
0
0
0
0
0
0
0
0
0
0
0
0
0
0
0
0
0
0
0
0
0
0
0
0
0
0
0
0
0
0
0
0
0
0
0
0
0
0
0
0
0
0
0
0
0
0
0
0
0
0
0
0
0
0
0
0
0
0
0
0
0
0
0
0
0
0
0
0
0
0
0
0
0
0
0
0
0
0
0
0
0
0
0
0
0
0
0
0
0
0
0
0
0
0
0
0
0
0
0
0
0
0
0
0
0
0
0
0
0
0
0
0
0
0
0
0
0
0
0
0
0
0
0
0
0
0
0
0
0
0
0
0
0
0
0
0
0
0
0
0
0
0
0
0
0
0
0
0
0
0
0
0
0
0
0
0
0
0
0
0
0
0
0
0
0
0
0
0
0
0
0
0
0
0
0
0
0
0
0
0
0
0
0
0
0
0
0
0
0
0
0
0
0
0
0
0
0
0
0
0
0
0
0
0
0
0
0
0
0
0
0
0
0
0
0
0
0
0
0
0
0
0
0
0
0
0
0
0
0
0
0
0
0
0
0
0
0
0
0
0
0
0
0
0
0
0
0
0
0
0
0
0
0
0
0
0
0
0
0
0
0
0
0
0
0
0
0
0
0
0
0
0
0
0
0
0
0
0
0
0
0
0
0
0
0
0
0
0
0
0
0
0
0
0
0
0
0
0
0
0
0
0
0
0
0
0
0
0
0
0
0
0
0
0
0
0
0
0
0
0
0
0
0
0
0
0
0
0
0
0
0
0
0
0
0
0
0
0
0
0
0
0
0
0
0
0
0
0
0
0
0
0
0
0
0
0
0
0
0
0
0
0
0
0
0
0
0
0
0
0
0
0
0
0
0
0
0
0
0
0
0
0
0
0
0
0
0
0
0
0
0
0
0
0
0
0
0
0
0
0
0
0
0
0
0
0
0
0
0
0
0
0
0
0
0
0
0
0
0
0
0
0
0
0
0
0
0
0
0
0
0
0
0
0
0
0
0
0
0
0
0
0
0
0
0
0
0
0
0
0
0
0
0
0
0
0
0
0
0
0
0
0
0
0
0
0
0
0
0
0
0
0
0
0
0
0
0
0
0
0
0
0
0
0
0
0
0
0
0
0
0
0
0
0
0
0
0
0
0
0
0
0
0
0
0
0
0
0
0
0
0
0
0
0
0
0
0
0
0
0
0
0
0
0
0
0
0
0
0
0
0
0
0
0
0
0
0
0
0
0
0
0
0
0
0
0
0
0
0
0
0
0
0
0
0
0
0
0
0
0
0
0
0
0
0
0
0
0
0
0
0
0
0
0
0
0
0
0
0
0
0
0
0
0
0
0
0
0
0
0
0
0
0
0
0
0
0
0
0
0
0
0
0
0
0
0
0
0
0
0
0
0
0
0
0
0
0
0
0
0
0
0
0
0
0
0
0
0
0
0
0
0
0
0
0
0
0
0
0
0
0
0
0
0
0
0
0
0
0
0
0
0
0
0
0
0
0
0
0
0
0
0
0
0
0
0
0
0
0
0
0
0
0
0
0
0
0
0
0
0
0
0
0
0
0
0
0
0
0
0
0
0
0
0
0
0
0
0
0
0
0
0
0
0
0
0
0
0
0
0
0
0
0
0
0
0
0
0
0
0
0
0
0
0
0
0
0
0
0
0
0
0
0
0
0
0
0
0
0
0
0
0
0
0
0
0
0
0
0
0
0
0
0
0
0
0
0
0
0
0
0
0
0
0
0
0
0
0
0
0
0
0
0
0
0
0
0
0
0
0
0
0
0
0
0
0
0
0
0
0
0
0
0
0
0
0
0
0
0
0
0
0
0
0
0
0
0
0
0
0
0
0
0
0
0
0
0
0
0
0
0
0
0
0
0
0
0
0
0
0
0
0
0
0
0
0
0
0
0
0
0
0
0
0
0
0
0
0
0
0
0
0
0
0
0
0
0
0
0
0
0
0
0
0
0
0
0
0
0
0
0
0
0
0
0
0
0
0
0
0
0
0
0
0
0
0
0
0
0
0
0
0
0
0
0
0
0
0
0
0
0
0
0
0
0
0
0
0
0
0
0
0
0
0
0
0
0
0
0
0
0
0
0
0
0
0
0
0
0
0
0
0
0
0
0
0
0
0
0
0
0
0
0
0
0
0
0
0
0
0
0
0
0
0
0
0
0
0
0
0
0
0
0
0
0
0
0
0
0
0
0
0
0
0
0
0
0
0
0
0
0
0
0
0
0
0
0
0
0
0
0
0
0
0
0
0
0
0
0
0
0
0
0
0
0
0
0
0
0
0
0
0
0
0
0
0
0
0
0
0
0
0
0
0
0
0
0
0
0
0
0
0
0
0
0
0
0
0
0
0
0
0
0
0
0
0
0
0
0
0
0
0
0
0
0
0
0
0
0
0
0
0
0
0
0
0
0
0
0
0
0
0
0
0
0
0
0
0
0
0
0
0
0
0
0
0
0
0
0
0
0
0
0
0
0
0
0
0
0
0
0
0
0
0
0
0
0
0
0
0
0
0
0
0
0
0
0
0
0
0
0
0
0
0
0
0
0
0
0
0
0
0
0
0
0
0
0
0
0
0
0
0
0
0
0
0
0
0
0
0
0
0
0
0
0
0
0
0
0
0
0
0
0
0
0
0
0
0
0
0
0
0
0
0
0
0
0
0
0
0
0
0
0
0
0
0
0
0
0
0
0
0
0
0
0
0
0
0
0
0
0
0
0
0
0
0
0
0
0
0
0
0
0
0
0
0
0
0
0
0
0
0
0
0
0
0
0
0
0
0
0
0
0
0
0
0
0
0
0
0
0
0
0
0
0
0
0
0
0
0
0
0
0
0
0
0
0
0
0
0
0
0
0
0
0
0
0
0
0
0
0
0
0
0
0
0
0
0
0
0
0
0
0
0
0
0
0
0
0
0
0
0
0
0
0
0
0
0
0
0
0
0
0
0
0
0
0
0
0
0
0
0
0
0
0
0
0
0
0
0
0
0
0
0
0
0
0
0
0
0
0
0
0
0
0
0
0
0
0
0
0
0
0
0
0
0
0
0
0
0
0
0
0
0
0
0
0
0
0
0
0
0
0
0
0
0
0
0
0
0
0
0
0
0
0
0
0
0
0
0
0
0
0
0
0
0
0
0
0
0
0
0
0
0
0
0
0
0
0
0
0
0
0
0
0
0
0
0
0
0
0
0
0
0
0
0
0
0
0
0
0
0
0
0
0
0
0
0
0
0
0
0
0
0
0
0
0
0
0
0
0
0
0
0
0
0
0
0
0
0
0
0
0
0
0
0
0
0
0
0
0
0
0
0
0
0
0
0
0
0
0
0
0
0
0
0
0
0
0
0
0
0
0
0
0
0
0
0
0
0
0
0
0
0
0
0
0
0
0
0
0
0
0
0
0
0
0
0
0
0
0
0
0
0
0
0
0
0
0
0
0
0
0
0
0
0
0
0
0
0
0
0
0
0
0
0
0
0
0
0
0
0
0
0
0
0
0
0
0
0
0
0
0
0
0
0
0
0
0
0
0
0
0
0
0
0
0
0
0
0
0
0
0
0
0
0
0
0
0
0
0
0
0
0
0
0
0
0
0
0
0
0
0
0
0
0
0
0
0
0
0
0
0
0
0
0
0
0
0
0
0
0
0
0
0
0
0
0
0
0
0
0
0
0
0
0
0
0
0
0
0
0
0
0
0
0
0
0
0
0
0
0
0
0
0
0
0
0
0
0
0
0
0
0
0
0
0
0
0
0
0
0
0
0
0
0
0
0
0
0
0
0
0
0
0
0
0
0
0
0
0
0
0
0
0
0
0
0
0
0
0
0
0
0
0
0
0
0
0
0
0
0
0
0
0
0
0
0
0
0
0
0
0
0
0
0
0
0
0
0
0
0
0
0
0
0
0
0
0
0
0
0
0
0
0
0
0
0
0
0
0
0
0
0
0
0
0
0
0
0
0
0
0
0
0
0
0
0
0
0
0
0
0
0
0
0
0
0
0
0
0
0
0
0
0
0
0
0
0
0
0
0
0
0
0
0
0
0
0
0
0
0
0
0
0
0
0
0
0
0
0
0
0
0
0
0
0
0
0
0
0
0
0
0
0
0
0
0
0
0
0
0
0
0
0
0
0
0
0
0
0
0
0
0
0
0
0
0
0
0
0
0
0
0
0
0
0
0
0
0
0
0
0
0
0
0
0
0
0
0
0
0
0
0
0
0
0
0
0
0
0
0
0
0
0
0
0
0
0
0
0
0
0
0
0
0
0
0
0
0
0
0
0
0
0
0
0
0
0
0
0
0
0
0
0
0
0
0
0
0
0
0
0
0
0
0
0
0
0
0
0
0
0
0
0
0
0
0
0
0
0
0
0
0
0
0
0
0
0
0
0
0
0
0
0
0
0
0
0
0
0
0
0
0
0
0
0
0
0
0
0
0
0
0
0
0
0
0
0
0
0
0
0
0
0
0
0
0
0
0
0
0
0
0
0
0
0
0
0
0
0
0
0
0
0
0
0
0
0
0
0
0
0
0
0
0
0
0
0
0
0
0
0
0
0
0
0
0
0
0
0
0
0
0
0
0
0
0
0
0
0
0
0
0
0
0
0
0
0
0
0
0
0
0
0
0
0
0
0
0
0
0
0
0
0
0
0
0
0
0
0
0
0
0
0
0
0
0
0
0
0
0
0
0
0
0
0
0
0
0
0
0
0
0
0
0
0
0
0
0
0
0
0
0
0
0
0
0
0
0
0
0
0
0
0
0
0
0
0
0
0
0
0
0
0
0
0
0
0
0
0
0
0
0
0
0
0
0
0
0
0
0
0
0
0
0
0
0
0
0
0
0
0
0
0
0
0
0
0
0
0
0
0
0
0
0
0
0
0
0
0
0
0
0
0
0
0
0
0
0
0
0
0
0
0
0
0
0
0
0
0
0
0
0
0
0
0
0
0
0
0
0
0
0
0
0
0
0
0
0
0
0
0
0
0
0
0
0
0
0
0
0
0
0
0
0
0
0
0
0
0
0
0
0
0
0
0
0
0
0
0
0
0
0
0
0
0
0
0
0
0
0
0
0
0
0
0
0
0
0
0
0
0
0
0
0
0
0
0
0
0
0
0
0
0
0
0
0
0
0
0
0
0
0
0
0
0
0
0
0
0
0
0
0
0
0
0
0
0
0
0
0
0
0
0
0
0
0
0
0
0
0
0
0
0
0
0
0
0
0
0
0
0
0
0
0
0
0
0
0
0
0
0
0
0
0
0
0
0
0
0
0
0
0
0
0
0
0
0
0
0
0
0
0
0
0
0
0
0
0
0
0
0
0
0
0
0
0
0
0
0
0
0
0
0
0
0
0
0
0
0
0
0
0
0
0
0
0
0
0
0
0
0
0
0
0
0
0
0
0
0
0
0
0
0
0
0
0
0
0
0
0
0
0
0
0
0
0
0
0
0
0
0
0
0
0
0
0
0
0
0
0
0
0
0
0
0
0
0
0
0
0
0
0
0
0
0
0
0
0
0
0
0
0
0
0
0
0
0
0
0
0
0
0
0
0
0
0
0
0
0
0
0
0
0
0
0
0
0
0
0
0
0
0
0
0
0
0
0
0
0
0
0
0
0
0
0
0
0
0
0
0
0
0
0
0
0
0
0
0
0
0
0
0
0
0
0
0
0
0
0
0
0
0
0
0
0
0
0
0
0
0
0
0
0
0
0
0
0
0
0
0
0
0
0
0
0
0
0
0
0
0
0
0
0
0
0
0
0
0
0
0
0
0
0
0
0
0
0
0
0
0
0
0
0
0
0
0
0
0
0
0
0
0
0
0
0
0
0
0
0
0
0
0
0
0
0
0
0
0
0
0
0
0
0
0
0
0
0
0
0
0
0
0
0
0
0
0
0
0
0
0
0
0
0
0
0
0
0
0
0
0
0
0
0
0
0
0
0
0
0
0
0
0
0
0
0
0
0
0
0
0
0
0
0
0
0
0
0
0
0
0
0
0
0
0
0
0
0
0
0
0
0
0
0
0
0
0
0
0
0
0
0
0
0
0
0
0
0
0
0
0
0
0
0
0
0
0
0
0
0
0
0
0
0
0
0
0
0
0
0
0
0
0
0
0
0
0
0
0
0
0
0
0
0
0
0
0
0
0
0
0
0
0
0
0
0
0
0
0
0
0
0
0
0
0
0
0
0
0
0
0
0
0
0
0
0
0
0
0
0
0
0
0
0
0
0
0
0
0
0
0
0
0
0
0
0
0
0
0
0
0
0
0
0
0
0
0
0
0
0
0
0
0
0
0
0
0
0
0
0
0
0
0
0
0
0
0
0
0
0
0
0
0
0
0
0
0
0
0
0
0
0
0
0
0
0
0
0
0
0
0
0
0
0
0
0
0
0
0
0
0
0
0
0
0
0
0
0
0
0
0
0
0
0
0
0
0
0
0
0
0
0
0
0
0
0
0
0
0
0
0
0
0
0
0
0
0
0
0
0
0
0
0
0
0
0
0
0
0
0
0
0
0
0
0
0
0
0
0
0
0
0
0
0
0
0
0
0
0
0
0
0
0
0
0
0
0
0
0
0
0
0
0
0
0
0
0
0
0
0
0
0
0
0
0
0
0
0
0
0
0
0
0
0
0
0
0
0
0
0
0
0
0
0
0
0
0
0
0
0
0
0
0
0
0
0
0
0
0
0
0
0
0
0
0
0
0
0
0
0
0
0
0
0
0
0
0
0
0
0
0
0
0
0
0
0
0
0
0
0
0
0
0
0
0
0
0
0
0
0
0
0
0
0
0
0
0
0
0
0
0
0
0
0
0
0
0
0
0
0
0
0
0
0
0
0
0
0
0
0
0
0
0
0
0
0
0
0
0
0
0
0
0
0
0
0
0
0
0
0
0
0
0
0
0
0
0
0
0
0
0
0
0
0
0
0
0
0
0
0
0
0
0
0
0
0
0
0
0
0
0
0
0
0
0
0
0
0
0
0
0
0
0
0
0
0
0
0
0
0
0
0
0
0
0
0
0
0
0
0
0
0
0
0
0
0
0
0
0
0
0
0
0
0
0
0
0
0
0
0
0
0
0
0
0
0
0
0
0
0
0
0
0
0
0
0
0
0
0
0
0
0
0
0
0
0
0
0
0
0
0
0
0
0
0
0
0
0
0
0
0
0
0
0
0
0
0
0
0
0
0
0
0
0
0
0
0
0
0
0
0
0
0
0
0
0
0
0
0
0
0
0
0
0
0
0
0
0
0
0
0
0
0
0
0
0
0
0
0
0
0
0
0
0
0
0
0
0
0
0
0
0
0
0
0
0
0
0
0
0
0
0
0
0
0
0
0
0
0
0
0
0
0
0
0
0
0
0
0
0
0
0
0
0
0
0
0
0
0
0
0
0
0
0
0
0
0
0
0
0
0
0
0
0
0
0
0
0
0
0
0
0
0
0
0
0
0
0
0
0
0
0
0
0
0
0
0
0
0
0
0
0
0
0
0
0
0
0
0
0
0
0
0
0
0
0
0
0
0
0
0
0
0
0
0
0
0
0
0
0
0
0
0
0
0
0
0
0
0
0
0
0
0
0
0
0
0
0
0
0
0
0
0
0
0
0
0
0
0
0
0
0
0
0
0
0
0
0
0
0
0
0
0
0
0
0
0
0
0
0
0
0
0
0
0
0
0
0
0
0
0
0
0
0
0
0
0
0
0
0
0
0
0
0
0
0
0
0
0
0
0
0
0
0
0
0
0
0
0
0
0
0
0
0
0
0
0
0
0
0
0
0
0
0
0
0
0
0
0
0
0
0
0
0
0
0
0
0
0
0
0
0
0
0
0
0
0
0
0
0
0
0
0
0
0
0
0
0
0
0
0
0
0
0
0
0
0
0
0
0
0
0
0
0
0
0
0
0
0
0
0
0
0
0
0
0
0
0
0
0
0
0
0
0
0
0
0
0
0
0
0
0
0
0
0
0
0
0
0
0
0
0
0
0
0
0
0
0
0
0
0
0
0
0
0
0
0
0
0
0
0
0
0
0
0
0
0
0
0
0
0
0
0
0
0
0
0
0
0
0
0
0
0
0
0
0
0
0
0
0
0
0
0
0
0
0
0
0
0
0
0
0
0
0
0
0
0
0
0
0
0
0
0
0
0
0
0
0
0
0
0
0
0
0
0
0
0
0
0
0
0
0
0
0
0
0
0
0
0
0
0
0
0
0
0
0
0
0
0
0
0
0
0
0
0
0
0
0
0
0
0
0
0
0
0
0
0
0
0
0
0
0
0
0
0
0
0
0
0
0
0
0
0
0
0
0
0
0
0
0
0
0
0
0
0
0
0
0
0
0
0
0
0
0
0
0
0
0
0
0
0
0
0
0
0
0
0
0
0
0
0
0
0
0
0
0
0
0
0
0
0
0
0
0
0
0
0
0
0
0
0
0
0
0
0
0
0
0
0
0
0
0
0
0
0
0
0
0
0
0
0
0
0
0
0
0
0
0
0
0
0
0
0
0
0
0
0
0
0
0
0
0
0
0
0
0
0
0
0
0
0
0
0
0
0
0
0
0
0
0
0
0
0
0
0
0
0
0
0
0
0
0
0
0
0
0
0
0
0
0
0
0
0
0
0
0
0
0
0
0
0
0
0
0
0
0
0
0
0
0
0
0
0
0
0
0
0
0
0
0
0
0
0
0
0
0
0
0
0
0
0
0
0
0
0
0
0
0
0
0
0
0
0
0
0
0
0
0
0
0
0
0
0
0
0
0
0
0
0
0
0
0
0
0
0
0
0
0
0
0
0
0
0
0
0
0
0
0
0
0
0
0
0
0
0
0
0
0
0
0
0
0
0
0
0
0
0
0
0
0
0
0
0
0
0
0
0
0
0
0
0
0
0
0
0
0
0
0
0
0
0
0
0
0
0
0
0
0
0
0
0
0
0
0
0
0
0
0
0
0
0
0
0
0
0
0
0
0
0
0
0
0
0
0
0
0
0
0
0
0
0
0
0
0
0
0
0
0
0
0
0
0
0
0
0
0
0
0
0
0
0
0
0
0
0
0
0
0
0
0
0
0
0
0
0
0
0
0
0
0
0
0
0
0
0
0
0
0
0
0
0
0
0
0
0
0
0
0
0
0
0
0
0
0
0
0
0
0
0
0
0
0
0
0
0
0
0
0
0
0
0
0
0
0
0
0
0
0
0
0
0
0
0
0
0
0
0
0
0
0
0
0
0
0
0
0
0
0
0
0
0
0
0
0
0
0
0
0
0
0
0
0
0
0
0
0
0
0
0
0
0
0
0
0
0
0
0
0
0
0
0
0
0
0
0
0
0
0
0
0
0
0
0
0
0
0
0
0
0
0
0
0
0
0
0
0
0
0
0
0
0
0
0
0
0
0
0
0
0
0
0
0
0
0
0
0
0
0
0
0
0
0
0
0
0
0
0
0
0
0
0
0
0
0
0
0
0
0
0
0
0
0
0
0
0
0
0
0
0
0
0
0
0
0
0
0
0
0
0
0
0
0
0
0
0
0
0
0
0
0
0
0
0
0
0
0
0
0
0
0
0
0
0
0
0
0
0
0
0
0
0
0
0
0
0
0
0
0
0
0
0
0
0
0
0
0
0
0
0
0
0
0
0
0
0
0
0
0
0
0
0
0
0
0
0
0
0
0
0
0
0
0
0
0
0
0
0
0
0
0
0
0
0
0
0
0
0
0
0
0
0
0
0
0
0
0
0
0
0
0
0
0
0
0
0
0
0
0
0
0
0
0
0
0
0
0
0
0
0
0
0
0
0
0
0
0
0
0
0
0
0
0
0
0
0
0
0
0
0
0
0
0
0
0
0
0
0
0
0
0
0
0
0
0
0
0
0
0
0
0
0
0
0
0
0
0
0
0
0
0
0
0
0
0
0
0
0
0
0
0
0
0
0
0
0
0
0
0
0
0
0
0
0
0
0
0
0
0
0
0
0
0
0
0
0
0
0
0
0
0
0
0
0
0
0
0
0
0
0
0
0
0
0
0
0
0
0
0
0
0
0
0
0
0
0
0
0
0
0
0
0
0
0
0
0
0
0
0
0
0
0
0
0
0
0
0
0
0
0
0
0
0
0
0
0
0
0
0
0
0
0
0
0
-142
-143
-141
-141
-145
-141
-141
-143
-143
-141
-142
-142
-140
-140
-144
-143
-145
-144
-144
-146
-144
-139
-138
-141
-143
-141
-139
-140
-143
-140
-141
-141
-140
-137
-138
-138
-140
-142
-138
-138
-135
-134
-136
-132
-132
-132
-130
-132
-130
-131
-131
-130
-134
-134
-138
-141
-146
-144
-144
-142
-142
-144
-146
-145
-141
-141
-141
-139
-138
-138
-138
-137
-138
-139
-140
-139
-138
-141
-139
-135
-136
-133
-133
-133
-132
-135
-137
-137
-137
-133
-132
-132
-137
-136
-133
-134
-137
-138
-134
-135
-136
-132
-134
-135
-132
-131
-133
-134
-134
-132
-132
-135
-136
-133
-131
-130
-131
-135
-133
-132
-133
-135
-134
-129
-131
-128
-131
-134
-136
-130
-128
-125
-120
-113
-107
-102
-99
-105
-112
-115
-124
-132
-148
-173
-206
-245
-272
-292
-303
-303
-312
-313
-313
-316
-301
-284
-262
-244
-226
-206
-187
-174
-161
-150
-140
-134
-131
-127
-123
-121
-119
-118
-115
-114
-114
-108
-111
-115
-111
-109
-110
-110
-111
-109
-106
-103
-106
-110
-109
-107
-108
-107
-111
-108
-104
-101
-105
-108
-107
-107
-107
-108
-104
-102
-104
-103
-103
-103
-106
-107
-102
-107
-103
-103
-102
-101
-103
-101
-106
-103
-103
-99
-101
-100
-98
-96
-97
-99
-99
-102
-100
-95
-96
-96
-95
-95
-94
-99
-98
-96
-97
-94
-98
-97
-96
-93
-94
-94
-97
-96
-96
-96
-96
-99
-94
-94
-97
-97
-100
-99
-99
-101
-99
-101
-101
-102
-101
-104
-104
-107
-108
-105
-107
-110
-107
-111
-114
-112
-117
-120
-117
-118
-119
-118
-118
-117
-117
-120
-120
-122
-122
-119
-118
-119
-118
-119
-119
-122
-122
-118
-122
-120
-119
-120
-119
-116
-112
-118
-116
-112
-116
-116
-116
-113
-114
-112
-113
-116
-116
-118
-116
-112
-112
-114
-112
-110
-113
-115
-115
-112
-116
-112
-115
-112
-113
-109
-110
-113
-113
-111
-108
-110
-113
-110
-111
-107
-110
-111
-111
-109
-108
-111
-110
-109
-111
-111
-108
-106
-107
-109
-107
-109
-107
-109
-107
-104
-104
-106
-108
-108
-107
-104
-104
-104
-102
-102
-104
-107
-106
-107
-105
-104
-104
-106
-105
-100
-98
-103
-105
-103
-104
-104
-102
-100
-100
-101
-99
-100
-100
-102
-102
-103
-102
-101
-100
-100
-102
-103
-101
-98
-101
-100
-100
-98
-102
-98
-97
-100
-99
-101
-101
-101
-103
-102
-97
-95
-97
-100
-101
-103
-101
-103
-100
-99
-98
-99
-97
-94
-100
-101
-101
-100
-105
-102
-95
-98
-97
-98
-98
-99
-97
-98
-97
-97
-99
-97
-96
-94
-95
-99
-99
-97
-98
-102
-99
-100
-98
-95
-95
-98
-95
-97
-99
-98
-100
-94
-93
-93
-96
-95
-95
-97
-99
-98
-96
-91
-91
-94
-94
-96
-96
-97
-94
-95
-97
-95
-92
-91
-92
-96
-96
-94
-95
-95
-95
-94
-92
-92
-90
-90
-91
-94
-93
-94
-93
-92
-92
-94
-94
-93
-94
-93
-91
-92
-92
-92
-88
-88
-92
-90
-92
-93
-93
-94
-97
-93
-86
-88
-92
-91
-89
-93
-91
-91
-92
-92
-89
-90
-90
-90
-92
-91
-91
-89
-93
-91
-92
-88
-87
-89
-93
-92
-93
-88
-92
-92
-87
-87
-88
-86
-87
-89
-92
-92
-90
-93
-90
-87
-87
-89
-87
-89
-90
-89
-86
-87
-87
-87
-84
-86
-90
-88
-87
-89
-92
-86
-85
-84
-88
-92
-88
-90
-88
-88
-90
-87
-82
-83
-85
-82
-81
-80
-79
-82
-83
-82
-79
-77
-81
-77
-79
-84
-87
-89
-91
-91
-92
-91
-91
-96
-95
-92
-89
-89
-88
-89
-89
-88
-88
-84
-86
-87
-89
-89
-87
-85
-87
-86
-85
-82
-83
-82
-80
-84
-89
-89
-82
-85
-84
-84
-81
-81
-81
-84
-85
-86
-83
-78
-78
-77
-82
-80
-81
-82
-82
-84
-84
-83
-79
-77
-78
-81
-80
-83
-82
-80
-80
-79
-78
-80
-80
-81
-82
-82
-81
-81
-81
-78
-78
-75
-75
-69
-66
-63
-59
-56
-55
-57
-62
-71
-76
-84
-109
-141
-175
-201
-217
-228
-223
-216
-215
-213
-212
-213
-210
-198
-181
-170
-160
-151
-136
-127
-113
-100
-92
-85
-81
-77
-74
-72
-65
-66
-67
-67
-69
-68
-65
-66
-65
-66
-68
-64
-63
-64
-66
-66
-65
-63
-63
-63
-63
-63
-66
-60
-67
-63
-64
-58
-61
-63
-62
-62
-59
-61
-63
-64
-61
-64
-63
-60
-60
-59
-58
-63
-64
-63
-64
-59
-56
-57
-57
-57
-60
-59
-62
-60
-62
-58
-59
-59
-60
-58
-58
-59
-59
-62
-60
-60
-59
-59
-61
-59
-64
-64
-65
-61
-59
-58
-60
-62
-65
-67
-62
-62
-66
-67
-66
-67
-68
-68
-70
-69
-72
-72
-73
-74
-78
-77
-78
-76
-76
-79
-81
-80
-80
-85
-85
-80
-82
-86
-87
-88
-86
-87
-89
-87
-88
-87
-83
-86
-83
-81
-81
-83
-86
-84
-75
-81
-81
-81
-79
-78
-74
-75
-80
-80
-75
-72
-75
-77
-75
-73
-68
-68
-69
-74
-75
-69
-73
-71
-70
-70
-67
-69
-73
-70
-70
-70
-70
-68
-70
-66
-65
-68
-69
-70
-70
-68
-64
-69
-70
-72
-69
-68
-67
-71
-69
-68
-66
-67
-68
-68
-72
-69
-70
-68
-70
-68
-66
-69
-68
-69
-68
-71
-70
-70
-71
-69
-67
-67
-69
-69
-71
-71
-69
-68
-71
-71
-71
-72
-68
-67
-69
-71
-73
-67
-68
-68
-67
-69
-69
-71
-68
-67
-66
-67
-69
-71
-70
-71
-66
-66
-68
-69
-69
-68
-69
-67
-68
-68
-68
-70
-68
-68
-69
-69
-66
-69
-69
-66
-65
-70
-68
-69
-66
-64
-67
-66
-65
-69
-68
-69
-68
-67
-67
-67
-65
-68
-66
-66
-67
-69
-65
-66
-69
-67
-66
-67
-64
-62
-68
-68
-67
-67
-67
-65
-63
-67
-65
-63
-65
-65
-68
-67
-66
-66
-66
-66
-66
-63
-68
-68
-65
-70
-65
-64
-66
-65
-65
-66
-64
-63
-65
-65
-66
-65
-64
-63
-66
-66
-65
-67
-61
-64
-69
-66
-63
-64
-65
-67
-64
-66
-64
-63
-65
-65
-62
-65
-63
-64
-66
-67
-64
-65
-65
-67
-65
-63
-63
-62
-64
-63
-62
-63
-65
-65
-65
-66
-60
-59
-63
-64
-63
-64
-65
-66
-70
-65
-64
-62
-62
-60
-61
-62
-67
-65
-63
-60
-61
-59
-56
-57
-56
-55
-55
-56
-54
-53
-52
-51
-52
-55
-56
-63
-65
-67
-68
-70
-68
-66
-65
-70
-68
-69
-66
-63
-64
-64
-63
-62
-64
-63
-63
-64
-63
-64
-61
-61
-60
-62
-61
-57
-57
-61
-60
-61
-62
-61
-60
-59
-58
-59
-57
-57
-59
-59
-59
-61
-60
-56
-55
-59
-58
-56
-58
-59
-60
-60
-58
-57
-55
-59
-60
-58
-56
-57
-57
-55
-55
-53
-55
-59
-58
-57
-56
-57
-58
-53
-52
-53
-54
-49
-45
-39
-30
-27
-25
-34
-35
-39
-49
-57
-77
-109
-145
-178
-204
-225
-234
-238
-243
-245
-251
-241
-230
-212
-192
-174
-151
-130
-110
-95
-84
-75
-70
-63
-60
-55
-50
-46
-46
-46
-46
-39
-37
-40
-39
-41
-39
-38
-37
-36
-38
-39
-35
-36
-42
-38
-34
-35
-33
-36
-36
-34
-35
-35
-37
-34
-34
-34
-35
-32
-30
-31
-29
-32
-35
-34
-33
-33
-29
-32
-32
-28
-28
-29
-35
-33
-29
-27
-29
-30
-31
-29
-28
-30
-28
-30
-28
-28
-25
-27
-24
-25
-27
-27
-25
-25
-27
-27
-26
-24
-24
-25
-22
-23
-26
-31
-28
-21
-23
-27
-24
-24
-25
-24
-25
-27
-27
-29
-28
-26
-30
-29
-30
-33
-33
-37
-37
-39
-41
-40
-34
-38
-41
-43
-46
-47
-51
-50
-46
-44
-46
-48
-49
-50
-54
-51
-53
-51
-49
-51
-52
-50
-48
-48
-49
-52
-52
-51
-51
-49
-47
-45
-44
-46
-46
-48
-49
-47
-47
-47
-41
-43
-42
-44
-47
-47
-44
-47
-44
-44
-43
-43
-44
-45
-46
-48
-46
-44
-42
-44
-40
-43
-40
-41
-43
-45
-49
-46
-45
-45
-44
-44
-42
-44
-46
-46
-43
-47
-46
-44
-44
-42
-43
-42
-40
-44
-46
-43
-42
-43
-41
-42
-41
-42
-46
-46
-47
-43
-41
-42
-41
-41
-40
-41
-42
-42
-43
-44
-43
-44
-43
-42
-41
-39
-39
-40
-44
-42
-41
-41
-40
-40
-41
-42
-43
-42
-43
-43
-42
-42
-40
-41
-40
-41
-42
-40
-45
-46
-45
-41
-43
-41
-41
-42
-43
-41
-42
-43
-42
-43
-42
-40
-42
-42
-42
-45
-45
-44
-44
-45
-42
-40
-44
-45
-48
-44
-41
-44
-46
-45
-41
-40
-41
-42
-42
-46
-46
-45
-43
-43
-43
-42
-43
-45
-43
-45
-46
-45
-42
-45
-43
-46
-46
-42
-39
-40
-42
-43
-45
-44
-43
-42
-42
-44
-43
-42
-40
-41
-43
-43
-42
-43
-42
-43
-42
-45
-45
-44
-40
-42
-40
-43
-42
-44
-45
-46
-46
-41
-41
-44
-42
-41
-42
-44
-44
-46
-43
-43
-40
-41
-42
-42
-42
-42
-44
-43
-42
-40
-40
-42
-43
-46
-40
-40
-42
-46
-45
-42
-42
-39
-40
-41
-41
-41
-44
-44
-45
-44
-42
-41
-43
-42
-41
-41
-43
-43
-43
-44
-43
-45
-42
-41
-40
-41
-42
-43
-41
-45
-41
-43
-44
-47
-44
-41
-41
-43
-43
-42
-42
-40
-41
-39
-36
-38
-37
-37
-32
-33
-32
-30
-30
-34
-31
-35
-34
-35
-40
-39
-37
-39
-45
-47
-48
-45
-43
-46
-45
-43
-42
-42
-42
-42
-43
-42
-40
-42
-45
-45
-41
-42
-41
-40
-43
-43
-39
-40
-40
-37
-41
-39
-41
-40
-37
-39
-42
-39
-38
-41
-41
-39
-39
-35
-38
-38
-41
-36
-32
-34
-36
-36
-36
-36
-37
-41
-40
-38
-36
-39
-39
-38
-37
-37
-41
-39
-38
-41
-38
-34
-39
-43
-38
-34
-38
-38
-30
-28
-22
-21
-13
-13
-14
-17
-17
-22
-30
-44
-72
-103
-135
-167
-190
-207
-205
-205
-206
-208
-213
-207
-196
-179
-160
-147
-129
-112
-96
-88
-71
-65
-58
-52
-42
-39
-36
-33
-32
-29
-24
-23
-28
-23
-21
-23
-21
-24
-22
-27
-29
-25
-27
-27
-17
-19
-25
-20
-20
-22
-15
-14
-19
-19
-26
-20
-18
-19
-18
-18
-21
-21
-19
-17
-20
-21
-14
-24
-20
-17
-19
-18
-18
-15
-19
-20
-21
-19
-17
-15
-16
-15
-14
-13
-9
-14
-17
-21
-19
-15
-14
-13
-18
-15
-15
-10
-14
-20
-11
-12
-17
-16
-15
-16
-12
-12
-14
-17
-15
-17
-17
-15
-15
-15
-16
-15
-19
-23
-20
-23
-27
-21
-20
-23
-27
-28
-30
-30
-29
-31
-35
-32
-32
-38
-38
-33
-33
-41
-34
-34
-37
-39
-40
-38
-42
-42
-35
-36
-39
-37
-42
-40
-36
-34
-37
-37
-36
-37
-32
-38
-31
-32
-36
-32
-27
-33
-32
-31
-30
-32
-34
-35
-27
-27
-27
-28
-32
-30
-29
-29
-31
-34
-27
-27
-26
-24
-26
-28
-29
-31
-27
-29
-27
-25
-26
-27
-21
-27
-26
-29
-27
-28
-28
-26
-23
-21
-22
-22
-24
-23
-27
-27
-29
-22
-21
-20
-22
-25
-25
-25
-22
-24
-22
-24
-23
-22
-22
-24
-22
-22
-29
-24
-22
-18
-16
-21
-22
-20
-26
-24
-25
-23
-25
-18
-24
-21
-19
-21
-20
-20
-24
-25
-22
-19
-16
-19
-26
-25
-19
-19
-20
-22
-22
-17
-18
-22
-24
-23
-18
-19
-22
-27
-24
-17
-18
-18
-19
-17
-17
-21
-22
-24
-22
-18
-16
-18
-16
-17
-21
-21
-20
-21
-23
-24
-14
-20
-21
-18
-21
-23
-26
-25
-20
-18
-21
-21
-20
-18
-19
-17
-18
-22
-16
-19
-16
-23
-18
-23
-20
-20
-20
-19
-21
-23
-15
-16
-20
-20
-18
-18
-22
-20
-18
-24
-18
-15
-13
-21
-23
-17
-14
-21
-21
-27
-16
-16
-15
-21
-19
-19
-20
-21
-17
-22
-20
-17
-15
-17
-22
-20
-20
-20
-21
-19
-16
-21
-19
-19
-16
-20
-14
-21
-18
-19
-18
-20
-16
-17
-17
-19
-20
-21
-23
-19
-15
-14
-14
-17
-8
-12
-14
-17
-14
-10
-13
-9
-6
-10
-14
-16
-17
-25
-25
-22
-24
-28
-31
-22
-25
-30
-30
-24
-22
-25
-20
-23
-19
-23
-25
-23
-26
-25
-25
-21
-19
-19
-19
-21
-19
-19
-23
-22
-20
-26
-25
-17
-19
-16
-15
-23
-25
-23
-21
-19
-16
-22
-23
-22
-20
-19
-19
-23
-18
-24
-23
-17
-16
-23
-22
-18
-18
-17
-24
-22
-20
-18
-18
-16
-21
-20
-20
-22
-23
-21
-22
-20
-20
-21
-17
-17
-12
-8
-4
3
3
8
7
0
-8
-14
-25
-49
-80
-108
-131
-154
-164
-156
-152
-148
-147
-149
-150
-144
-134
-118
-106
-102
-91
-78
-66
-50
-41
-35
-27
-20
-18
-18
-15
-14
-10
-14
-12
-11
-9
-9
-9
-11
-8
-12
-10
-6
-10
-13
-9
-2
-3
-4
-6
-6
-3
-6
-6
-8
-8
-8
-6
-5
-4
-8
-8
-12
-6
-6
-8
-1
2
-6
-3
-7
-9
-10
-6
-7
-4
-7
-2
-5
0
-2
-3
-6
-3
-4
-1
-2
0
-4
-4
-5
0
-7
-5
-6
-1
-2
0
-2
-4
-4
-7
-3
-4
-1
-2
0
-1
-2
-2
-8
-4
-8
-12
-6
-5
-7
-3
-6
-9
-12
-14
-14
-15
-14
-14
-18
-17
-12
-14
-18
-18
-22
-19
-25
-23
-22
-18
-21
-27
-29
-25
-28
-30
-32
-27
-26
-23
-26
-25
-26
-23
-25
-28
-28
-21
-20
-18
-23
-20
-21
-23
-26
-25
-20
-18
-16
-16
-15
-16
-22
-19
-20
-19
-19
-18
-13
-16
-14
-16
-19
-17
-16
-15
-17
-17
-18
-16
-15
-13
-19
-18
-17
-15
-11
-11
-8
-12
-14
-16
-17
-15
-16
-18
-14
-18
-9
-12
-14
-17
-17
-16
-16
-18
-15
-14
-11
-7
-14
-13
-13
-11
-17
-16
-14
-12
-12
-12
-12
-14
-17
-11
-14
-15
-16
-11
-13
-10
-12
-13
-15
-12
-15
-17
-16
-13
-14
-10
-9
-13
-17
-12
-14
-13
-17
-17
-12
-12
-12
-11
-15
-17
-17
-14
-17
-13
-13
-11
-11
-17
-14
-14
-15
-17
-19
-16
-10
-9
-11
-14
-12
-13
-19
-20
-14
-14
-12
-9
-10
-9
-12
-15
-19
-14
-12
-15
-14
-11
-13
-11
-15
-15
-18
-19
-12
-13
-11
-7
-12
-17
-14
-8
-12
-13
-19
-15
-10
-13
-10
-10
-14
-13
-13
-17
-17
-14
-14
-10
-12
-13
-14
-14
-16
-19
-18
-16
-12
-11
-14
-9
-13
-13
-19
-16
-15
-18
-14
-10
-12
-17
-14
-8
-11
-16
-20
-15
-12
-11
-11
-13
-13
-10
-15
-18
-21
-16
-9
-9
-16
-13
-13
-13
-11
-19
-15
-12
-11
-5
-6
-4
-2
-3
-6
-8
-7
-7
-7
0
-6
-7
-9
-10
-16
-18
-23
-23
-21
-20
-20
-21
-16
-14
-15
-22
-23
-19
-16
-13
-20
-20
-13
-14
-13
-16
-18
-18
-12
-12
-14
-12
-10
-11
-14
-19
-20
-14
-13
-10
-13
-16
-13
-13
-16
-15
-17
-15
-18
-15
-9
-13
-15
-9
-11
-12
-15
-15
-16
-15
-16
-16
-16
-12
-15
-15
-18
-17
-14
-11
-14
-15
-16
-14
-16
-15
-17
-17
-18
-13
-12
-8
-1
0
6
12
12
10
7
5
-4
-12
-27
-55
-90
-126
-158
-181
-188
-192
-194
-198
-202
-197
-185
-173
-156
-134
-118
-98
-79
-66
-53
-41
-32
-26
-26
-22
-18
-12
-11
-13
-11
-10
-6
-6
-11
-8
-8
-8
-8
-5
-5
-3
-3
-5
-8
-5
-7
-4
-5
-7
-6
-4
-3
-3
-1
-5
-5
-3
-3
-6
-6
-3
-4
-2
-2
-5
-4
-4
-3
0
-3
-1
-4
-1
-1
-4
-6
-3
-4
-4
-4
-3
-1
-2
0
-1
-4
-2
-2
0
-2
-3
-2
3
1
-1
0
3
0
1
5
1
3
3
3
2
2
5
2
-2
-1
2
3
2
-1
-2
-6
-5
-6
0
-1
-2
-3
-3
-7
-5
-8
-9
-9
-9
-10
-11
-9
-15
-18
-15
-17
-16
-24
-22
-22
-21
-21
-22
-26
-24
-21
-19
-24
-24
-24
-23
-21
-19
-22
-22
-23
-25
-25
-23
-21
-20
-20
-24
-21
-22
-20
-21
-21
-19
-21
-21
-20
-17
-20
-19
-19
-18
-18
-20
-18
-17
-19
-19
-16
-19
-21
-21
-19
-19
-17
-18
-15
-16
-20
-19
-21
-22
-20
-18
-19
-18
-18
-18
-21
-20
-19
-20
-21
-21
-24
-19
-20
-16
-18
-20
-19
-19
-18
-23
-23
-23
-20
-17
-15
-16
-19
-14
-18
-17
-17
-18
-14
-11
-15
-16
-16
-16
-15
-15
-19
-19
-17
-14
-16
-20
-16
-14
-16
-14
-18
-16
-15
-14
-14
-14
-14
-13
-14
-16
-16
-15
-14
-14
-14
-15
-14
-15
-15
-16
-17
-16
-13
-13
-13
-13
-15
-17
-13
-18
-19
-15
-16
-13
-12
-14
-14
-13
-15
-15
-17
-17
-16
-14
-14
-15
-12
-12
-15
-15
-15
-17
-16
-15
-16
-13
-10
-12
-16
-16
-16
-17
-15
-14
-12
-12
-11
-13
-16
-15
-17
-16
-15
-14
-15
-17
-13
-13
-16
-15
-15
-16
-15
-13
-14
-11
-13
-13
-14
-13
-16
-18
-18
-15
-15
-13
-14
-14
-15
-16
-17
-17
-16
-14
-15
-12
-14
-16
-15
-12
-18
-15
-14
-16
-12
-13
-16
-14
-17
-16
-16
-15
-17
-16
-16
-15
-13
-11
-9
-8
-11
-9
-8
-4
-6
-5
-8
-6
-5
-7
-7
-11
-13
-16
-20
-20
-26
-28
-28
-25
-27
-26
-22
-23
-20
-16
-17
-20
-20
-19
-21
-20
-23
-20
-20
-21
-19
-15
-14
-15
-18
-20
-18
-17
-17
-14
-14
-14
-16
-16
-17
-18
-15
-15
-14
-11
-14
-11
-17
-17
-16
-16
-18
-17
-15
-11
-13
-14
-14
-15
-18
-17
-16
-13
-18
-13
-16
-14
-14
-17
-15
-16
-15
-20
-22
-14
